host_time_s,chA_raw,chB_env
1784657087.9533,500,3055
1784657087.9580,500,3045
1784657087.9611,493,3034
1784657087.9640,493,3039
1784657087.9686,491,3028
1784657087.9713,491,3037
1784657087.9739,496,3072
1784657087.9853,509,3105
1784657087.9888,509,3113
1784657087.9920,510,3109
1784657088.1081,509,3106
1784657088.1107,509,3091
1784657088.1132,507,3090
1784657088.1159,502,3072
1784657088.1194,493,3064
1784657088.1218,494,3041
1784657088.1248,494,3053
1784657088.1276,494,3071
1784657088.1302,495,3075
1784657088.1327,494,3036
1784657088.1354,493,3040
1784657088.1379,502,3083
1784657088.1403,505,3086
1784657088.1432,506,3084
1784657088.1461,501,3069
1784657088.1487,502,3057
1784657088.1512,500,3092
1784657088.1546,505,3048
1784657088.1581,497,3049
1784657088.1611,498,3033
1784657088.1636,498,3063
1784657088.1669,498,3063
1784657088.1698,497,3051
1784657088.1721,500,3056
1784657088.1930,499,3050
1784657088.1974,500,3046
1784657088.2002,496,3026
1784657088.2067,495,2997
1784657088.2354,491,3024
1784657088.2397,495,3046
1784657088.2509,499,3080
1784657088.2543,507,3087
1784657088.2681,502,3083
1784657088.2732,505,3069
1784657088.2798,502,3072
1784657088.2827,501,3062
1784657088.2864,497,3053
1784657088.2906,500,3052
1784657088.2949,498,3043
1784657088.3092,507,3122
1784657088.3234,506,3092
1784657088.3291,505,3093
1784657088.3353,501,3064
1784657088.3419,500,3053
1784657088.3481,498,3048
1784657088.3564,498,3056
1784657088.3616,497,3037
1784657088.3678,494,3029
1784657088.3733,494,3045
1784657088.3799,493,3039
1784657088.3834,497,3034
1784657088.3877,490,3044
1784657088.3918,488,3034
1784657088.3946,492,3014
1784657088.3972,494,3038
1784657088.3997,493,3047
1784657088.4026,495,3099
1784657088.4056,500,3061
1784657088.4095,498,3058
1784657088.4117,498,3051
1784657088.4147,497,3048
1784657088.4173,495,3050
1784657088.4204,496,3044
1784657088.4232,493,3035
1784657088.4269,498,3051
1784657088.4377,497,3047
1784657088.4440,496,3037
1784657088.4466,495,3001
1784657088.4580,495,3029
1784657088.4622,494,3023
1784657088.4693,491,3020
1784657088.4722,489,3011
1784657088.4752,496,3038
1784657088.4785,496,3052
1784657088.4820,498,3064
1784657088.4904,499,3068
1784657088.4928,501,3062
1784657088.5000,498,3055
1784657088.5058,498,3042
1784657088.5093,497,3039
1784657088.5157,495,3040
1784657088.5230,494,3038
1784657088.5261,492,3025
1784657088.5329,493,3032
1784657088.5384,491,3024
1784657088.5446,493,3015
1784657088.5472,491,3023
1784657088.5509,496,3047
1784657088.5544,493,3040
1784657088.5568,495,3035
1784657088.5591,497,3028
1784657088.5614,494,3036
1784657088.5637,497,3039
1784657088.5663,494,3026
1784657088.5688,491,3029
1784657088.5719,496,3036
1784657088.5758,497,3035
1784657088.5783,492,3029
1784657088.5808,493,3042
1784657088.5835,495,3023
1784657088.5861,494,3072
1784657088.6002,495,3047
1784657088.6046,497,3024
1784657088.6096,495,3041
1784657088.6197,495,3047
1784657088.6271,495,3042
1784657088.6340,495,3036
1784657088.6373,493,3031
1784657088.6400,491,3026
1784657088.6446,488,3018
1784657088.6481,488,3014
1784657088.6566,486,2988
1784657088.6630,492,3029
1784657088.6686,495,3044
1784657088.6750,495,3032
1784657088.6800,494,3027
1784657088.6879,494,3041
1784657088.6941,497,3056
1784657088.6982,497,3057
1784657088.7032,498,3057
1784657088.7088,497,3041
1784657088.7117,496,3042
1784657088.7155,496,3046
1784657088.7189,499,3069
1784657088.7222,500,3052
1784657088.7246,498,3044
1784657088.7269,502,3043
1784657088.7293,503,3072
1784657088.7316,494,3023
1784657088.7338,496,3038
1784657088.7367,497,3038
1784657088.7389,499,3057
1784657088.7418,498,3053
1784657088.7444,497,3057
1784657088.7473,497,3048
1784657088.7496,493,3044
1784657088.7570,492,3026
1784657088.7591,490,3037
1784657088.7612,495,3052
1784657088.7637,496,3052
1784657088.7664,504,3099
1784657088.7691,508,3097
1784657088.7726,507,3118
1784657088.7749,506,3083
1784657088.7774,502,3081
1784657088.7801,504,3084
1784657088.7829,503,3051
1784657088.7854,499,3064
1784657088.7882,498,3063
1784657088.7905,498,3037
1784657088.7926,498,3048
1784657088.7948,496,3037
1784657088.7968,495,3028
1784657088.7990,492,3015
1784657088.8014,495,3025
1784657088.8038,493,3038
1784657088.8066,499,3046
1784657088.8088,497,3029
1784657088.8129,497,3076
1784657088.8150,495,3042
1784657088.8172,492,3036
1784657088.8198,492,3026
1784657088.8221,488,3035
1784657088.8242,493,3025
1784657088.8264,492,3020
1784657088.8287,492,3024
1784657088.8310,491,3014
1784657088.8333,491,3006
1784657088.8361,492,3028
1784657088.8386,494,3021
1784657088.8408,493,3016
1784657088.8432,493,3040
1784657088.8454,496,3056
1784657088.8476,495,3053
1784657088.8500,507,3098
1784657088.8529,507,3049
1784657088.8577,505,3088
1784657088.8605,503,3080
1784657088.8626,501,3064
1784657088.8648,504,3059
1784657088.8668,500,3048
1784657088.8698,500,3057
1784657088.8728,502,3064
1784657088.8758,500,3057
1784657088.8791,499,3053
1784657088.8822,498,3049
1784657088.8846,497,3035
1784657088.8879,497,3045
1784657088.8913,498,3040
1784657088.8945,496,3037
1784657088.8977,495,3027
1784657088.9004,493,3077
1784657088.9029,492,3019
1784657088.9078,490,3017
1784657088.9107,490,3009
1784657088.9133,498,3078
1784657088.9158,501,3078
1784657088.9185,500,3054
1784657088.9217,500,3056
1784657088.9249,501,3054
1784657088.9278,502,3098
1784657088.9308,500,3079
1784657088.9334,498,3046
1784657088.9365,496,3039
1784657088.9393,494,3033
1784657088.9420,493,3025
1784657088.9450,493,3018
1784657088.9479,491,3004
1784657088.9522,494,3045
1784657088.9560,499,3062
1784657088.9587,500,3061
1784657088.9615,497,3058
1784657088.9644,495,3043
1784657088.9671,498,3065
1784657088.9700,498,3079
1784657088.9726,499,3055
1784657088.9749,500,3048
1784657088.9774,497,3041
1784657088.9800,497,3041
1784657088.9828,496,3033
1784657088.9857,492,3061
1784657088.9884,502,3086
1784657088.9909,503,3087
1784657088.9934,502,3078
1784657088.9962,505,3065
1784657088.9996,506,3003
1784657089.0025,499,3054
1784657089.0051,498,3044
1784657089.0078,492,3037
1784657089.0106,493,3033
1784657089.0135,489,3022
1784657089.0173,503,3062
1784657089.0196,499,3056
1784657089.0217,497,3043
1784657089.0238,497,3034
1784657089.0259,496,3027
1784657089.0284,497,3041
1784657089.0307,495,3035
1784657089.0329,493,3030
1784657089.0356,492,3027
1784657089.0379,492,3013
1784657089.0402,488,3010
1784657089.0425,495,3049
1784657089.0447,499,3080
1784657089.0474,500,3068
1784657089.0499,502,3073
1784657089.0525,500,3060
1784657089.0550,499,3055
1784657089.0573,498,3051
1784657089.0595,498,3042
1784657089.0638,496,3042
1784657089.0666,495,3025
1784657089.0694,493,3022
1784657089.0719,495,3042
1784657089.0745,499,3062
1784657089.0773,500,3053
1784657089.0803,506,3091
1784657089.0831,505,3085
1784657089.0857,503,3073
1784657089.0889,501,3051
1784657089.0924,500,3067
1784657089.0962,498,3053
1784657089.0992,497,3044
1784657089.1018,497,3037
1784657089.1044,494,3019
1784657089.1070,492,3029
1784657089.1120,493,3022
1784657089.1148,490,3016
1784657089.1175,496,3052
1784657089.1199,500,3090
1784657089.1225,501,3077
1784657089.1253,500,3079
1784657089.1280,500,3068
1784657089.1320,500,3046
1784657089.1356,500,3068
1784657089.1394,499,3046
1784657089.1432,497,3026
1784657089.1471,496,3032
1784657089.1510,493,3020
1784657089.1546,495,3028
1784657089.1576,493,3026
1784657089.1607,496,3045
1784657089.1635,500,3060
1784657089.1665,501,3050
1784657089.1699,501,3053
1784657089.1748,499,3048
1784657089.1775,497,3039
1784657089.1803,496,3032
1784657089.1828,494,3032
1784657089.1856,497,3039
1784657089.1891,498,3049
1784657089.1927,496,3041
1784657089.1956,498,3031
1784657089.1985,496,3032
1784657089.2010,501,3073
1784657089.2040,500,3066
1784657089.2066,501,3054
1784657089.2100,501,3052
1784657089.2136,501,3044
1784657089.2162,498,3072
1784657089.2204,503,3096
1784657089.2237,499,3070
1784657089.2265,498,3064
1784657089.2290,498,3053
1784657089.2315,498,3046
1784657089.2344,497,3042
1784657089.2377,501,3081
1784657089.2409,506,3071
1784657089.2441,505,3061
1784657089.2475,499,3056
1784657089.2500,500,3070
1784657089.2527,495,3043
1784657089.2554,499,3044
1784657089.2581,496,3026
1784657089.2608,502,3062
1784657089.2634,511,3117
1784657089.2659,511,3105
1784657089.2708,509,3083
1784657089.2735,509,3091
1784657089.2762,506,3087
1784657089.2787,502,3073
1784657089.2814,504,3038
1784657089.2847,499,3055
1784657089.2877,496,3053
1784657089.2911,499,3067
1784657089.2948,498,3036
1784657089.2983,497,3017
1784657089.3007,495,3026
1784657089.3033,492,3021
1784657089.3058,495,3040
1784657089.3084,489,3041
1784657089.3108,499,3073
1784657089.3145,498,3071
1784657089.3181,498,3065
1784657089.3207,499,3064
1784657089.3233,499,3055
1784657089.3258,497,3057
1784657089.3287,498,3057
1784657089.3317,498,3055
1784657089.3342,502,3068
1784657089.3374,501,3059
1784657089.3407,500,3050
1784657089.3442,499,3045
1784657089.3475,498,3065
1784657089.3500,494,3034
1784657089.3527,494,3031
1784657089.3552,493,3023
1784657089.3577,498,3056
1784657089.3605,503,3065
1784657089.3651,499,3059
1784657089.3678,498,3052
1784657089.3704,497,3049
1784657089.3729,500,3067
1784657089.3755,506,3086
1784657089.3791,501,3080
1784657089.3823,501,3059
1784657089.3850,499,3055
1784657089.3882,498,3056
1784657089.3917,494,3054
1784657089.3953,493,3044
1784657089.3985,492,3030
1784657089.4012,488,3047
1784657089.4037,492,3041
1784657089.4064,492,3036
1784657089.4111,491,3026
1784657089.4132,494,3046
1784657089.4151,495,3047
1784657089.4178,496,3048
1784657089.4206,495,3039
1784657089.4233,494,3035
1784657089.4267,493,3040
1784657089.4299,495,3048
1784657089.4332,497,3037
1784657089.4358,497,3046
1784657089.4392,498,3038
1784657089.4423,495,3028
1784657089.4454,494,3029
1784657089.4475,494,3005
1784657089.4496,495,3032
1784657089.4516,496,3038
1784657089.4538,496,3041
1784657089.4582,491,3068
1784657089.4604,497,3027
1784657089.4626,494,2992
1784657089.4647,491,3018
1784657089.4669,493,3035
1784657089.4692,493,3038
1784657089.4716,495,3036
1784657089.4736,498,3046
1784657089.4758,496,3051
1784657089.4779,495,3037
1784657089.4800,494,3028
1784657089.4821,494,3024
1784657089.4842,492,3028
1784657089.4867,492,3030
1784657089.4889,491,3029
1784657089.4910,491,3018
1784657089.4931,491,3051
1784657089.4952,496,3009
1784657089.4973,494,3040
1784657089.4994,494,3043
1784657089.5015,493,3025
1784657089.5062,491,3019
1784657089.5087,488,3009
1784657089.5112,493,3041
1784657089.5136,496,3068
1784657089.5162,500,3069
1784657089.5192,501,3061
1784657089.5221,500,3054
1784657089.5250,501,3050
1784657089.5277,498,3050
1784657089.5302,503,3068
1784657089.5327,501,3050
1784657089.5352,499,3067
1784657089.5378,499,3059
1784657089.5406,498,3053
1784657089.5434,497,3044
1784657089.5460,497,3038
1784657089.5488,496,3026
1784657089.5536,493,3023
1784657089.5563,494,3022
1784657089.5589,494,3045
1784657089.5614,496,3052
1784657089.5641,497,3045
1784657089.5671,498,3059
1784657089.5700,498,3057
1784657089.5725,499,3052
1784657089.5752,492,3036
1784657089.5785,492,3031
1784657089.5818,490,3042
1784657089.5845,491,3043
1784657089.5874,492,3021
1784657089.5905,491,3029
1784657089.5934,495,3030
1784657089.5961,492,3044
1784657089.6012,492,3019
1784657089.6032,489,3009
1784657089.6052,491,3025
1784657089.6072,497,3061
1784657089.6095,499,3070
1784657089.6118,500,3068
1784657089.6142,498,3069
1784657089.6165,498,3050
1784657089.6190,500,3057
1784657089.6215,498,3043
1784657089.6237,496,3028
1784657089.6259,494,3026
1784657089.6283,493,3026
1784657089.6306,491,3029
1784657089.6329,499,3065
1784657089.6351,499,3058
1784657089.6374,499,3055
1784657089.6398,500,3047
1784657089.6421,502,3055
1784657089.6474,497,3031
1784657089.6500,495,3043
1784657089.6529,502,3075
1784657089.6555,510,3062
1784657089.6580,506,3057
1784657089.6613,501,3062
1784657089.6647,501,3074
1784657089.6677,498,3052
1784657089.6708,499,3058
1784657089.6742,500,3057
1784657089.6777,498,3054
1784657089.6811,498,3048
1784657089.6839,498,3040
1784657089.6865,497,3033
1784657089.6890,493,3026
1784657089.6939,493,3021
1784657089.6967,491,3021
1784657089.6994,495,3032
1784657089.7020,497,3041
1784657089.7046,496,3074
1784657089.7073,505,3083
1784657089.7102,501,3078
1784657089.7131,501,3063
1784657089.7164,505,3058
1784657089.7190,500,3053
1784657089.7227,499,3044
1784657089.7255,499,3045
1784657089.7280,500,3056
1784657089.7309,500,3049
1784657089.7337,497,3042
1784657089.7364,495,3031
1784657089.7405,495,3051
1784657089.7435,493,3012
1784657089.7454,491,3016
1784657089.7474,489,3010
1784657089.7494,491,3021
1784657089.7515,503,3080
1784657089.7537,498,3057
1784657089.7561,502,3056
1784657089.7583,499,3055
1784657089.7604,501,3056
1784657089.7625,501,3038
1784657089.7646,497,3024
1784657089.7667,495,3023
1784657089.7692,496,3020
1784657089.7716,499,3033
1784657089.7737,495,3027
1784657089.7758,494,2999
1784657089.7779,493,3008
1784657089.7800,494,3038
1784657089.7821,494,3017
1784657089.7844,494,3021
1784657089.7908,494,3012
1784657089.7929,492,3029
1784657089.7949,496,3040
1784657089.7969,495,3041
1784657089.7991,494,3042
1784657089.8013,497,3029
1784657089.8035,494,3020
1784657089.8057,491,2995
1784657089.8078,494,3025
1784657089.8099,500,3054
1784657089.8121,501,3055
1784657089.8142,501,3057
1784657089.8163,501,3033
1784657089.8191,498,3050
1784657089.8219,498,3040
1784657089.8245,495,3030
1784657089.8269,494,3029
1784657089.8294,495,3042
1784657089.8324,496,3035
1784657089.8360,494,3033
1784657089.8400,497,3028
1784657089.8441,493,3053
1784657089.8481,491,3034
1784657089.8530,491,3028
1784657089.8551,491,3026
1784657089.8572,490,3040
1784657089.8591,497,3059
1784657089.8613,499,3051
1784657089.8636,495,3047
1784657089.8657,499,3063
1784657089.8678,510,3110
1784657089.8701,508,3074
1784657089.8723,506,3094
1784657089.8744,506,3108
1784657089.8765,501,3077
1784657089.8786,501,3071
1784657089.8808,501,3061
1784657089.8829,499,3044
1784657089.8851,498,3053
1784657089.8872,497,3047
1784657089.8893,496,3038
1784657089.8914,498,3043
1784657089.8935,497,3083
1784657089.8957,496,3038
1784657089.9006,494,3029
1784657089.9032,500,3066
1784657089.9056,498,3058
1784657089.9081,496,3059
1784657089.9107,496,3039
1784657089.9137,498,3059
1784657089.9167,499,3096
1784657089.9195,500,3047
1784657089.9223,498,3045
1784657089.9250,499,3037
1784657089.9277,495,3030
1784657089.9305,492,3025
1784657089.9330,492,3017
1784657089.9356,492,3026
1784657089.9382,491,3022
1784657089.9409,489,3015
1784657089.9471,493,3038
1784657089.9498,495,3029
1784657089.9527,500,3073
1784657089.9552,508,3059
1784657089.9579,501,3048
1784657089.9609,499,3036
1784657089.9641,498,3036
1784657089.9672,499,3050
1784657089.9700,498,3062
1784657089.9734,496,3038
1784657089.9768,494,3042
1784657089.9805,496,3058
1784657089.9834,498,3061
1784657089.9862,500,3064
1784657089.9889,499,3055
1784657089.9951,498,3050
1784657089.9976,498,3046
1784657090.0003,497,3041
1784657090.0030,497,3038
1784657090.0059,496,3030
1784657090.0089,492,3025
1784657090.0124,493,3026
1784657090.0157,493,3024
1784657090.0186,493,3026
1784657090.0221,492,3021
1784657090.0257,494,3039
1784657090.0292,494,3022
1784657090.0321,488,3024
1784657090.0349,489,3021
1784657090.0378,488,3017
1784657090.0410,494,3017
1784657090.0439,493,3018
1784657090.0467,502,3082
1784657090.0495,507,3093
1784657090.0522,501,3085
1784657090.0572,506,3074
1784657090.0592,501,3069
1784657090.0613,499,3048
1784657090.0634,498,3056
1784657090.0657,498,3050
1784657090.0681,497,3040
1784657090.0704,496,3034
1784657090.0726,502,3062
1784657090.0749,499,3055
1784657090.0771,498,3049
1784657090.0794,497,3044
1784657090.0818,499,3051
1784657090.0845,498,3056
1784657090.0870,499,3062
1784657090.0894,498,3044
1784657090.0916,497,3041
1784657090.0938,497,3038
1784657090.0961,495,3031
1784657090.0984,498,3044
1784657090.1007,496,3041
1784657090.1060,488,3031
1784657090.1087,489,3027
1784657090.1115,488,3025
1784657090.1140,490,3032
1784657090.1169,490,3025
1784657090.1199,497,3031
1784657090.1231,494,3026
1784657090.1264,497,3048
1784657090.1296,499,3043
1784657090.1323,496,3052
1784657090.1352,499,3050
1784657090.1379,498,3047
1784657090.1405,498,3041
1784657090.1432,497,3034
1784657090.1457,495,3033
1784657090.1507,493,3021
1784657090.1528,505,3097
1784657090.1548,501,3090
1784657090.1569,499,3082
1784657090.1590,499,3069
1784657090.1615,499,3064
1784657090.1637,500,3060
1784657090.1660,497,3050
1784657090.1688,502,3070
1784657090.1711,501,3079
1784657090.1734,498,3056
1784657090.1757,498,3050
1784657090.1779,497,3043
1784657090.1802,496,3037
1784657090.1825,497,3031
1784657090.1848,497,3052
1784657090.1870,513,3137
1784657090.1892,512,3129
1784657090.1915,514,3109
1784657090.1937,512,3122
1784657090.1989,512,3153
1784657090.2018,511,3101
1784657090.2046,512,3094
1784657090.2072,511,3087
1784657090.2098,509,3082
1784657090.2125,502,3073
1784657090.2157,503,3063
1784657090.2188,500,3068
1784657090.2221,498,3054
1784657090.2261,498,3049
1784657090.2297,495,3053
1784657090.2322,497,3043
1784657090.2350,497,3030
1784657090.2375,497,3034
1784657090.2401,499,3044
1784657090.2451,498,3044
1784657090.2472,497,3044
1784657090.2494,497,3047
1784657090.2516,497,3044
1784657090.2536,496,3037
1784657090.2559,495,3032
1784657090.2582,493,3028
1784657090.2605,492,3022
1784657090.2627,490,2968
1784657090.2649,490,3008
1784657090.2675,494,3042
1784657090.2700,492,3036
1784657090.2724,496,3047
1784657090.2746,497,3052
1784657090.2769,497,3058
1784657090.2791,496,3055
1784657090.2815,496,3047
1784657090.2837,498,3041
1784657090.2860,494,3032
1784657090.2883,494,3033
1784657090.2930,493,3034
1784657090.2953,492,3021
1784657090.2976,493,3010
1784657090.2999,491,3014
1784657090.3023,488,3005
1784657090.3051,491,3022
1784657090.3074,492,3027
1784657090.3097,494,3035
1784657090.3119,496,3042
1784657090.3142,495,3036
1784657090.3166,494,3036
1784657090.3194,492,3010
1784657090.3219,490,3023
1784657090.3242,496,3077
1784657090.3264,498,3060
1784657090.3286,497,3053
1784657090.3309,498,3058
1784657090.3333,496,3032
1784657090.3355,494,3032
1784657090.3404,494,3030
1784657090.3427,504,3094
1784657090.3451,513,3163
1784657090.3474,516,3151
1784657090.3498,516,3138
1784657090.3523,517,3134
1784657090.3546,518,3128
1784657090.3569,515,3120
1784657090.3591,514,3113
1784657090.3614,512,3105
1784657090.3637,512,3091
1784657090.3659,511,3103
1784657090.3689,510,3085
1784657090.3713,506,3079
1784657090.3735,506,3063
1784657090.3757,503,3061
1784657090.3781,499,3055
1784657090.3804,499,3038
1784657090.3827,497,3037
1784657090.3876,496,3035
1784657090.3899,498,3053
1784657090.3922,479,3040
1784657090.3945,483,3039
1784657090.3970,486,3028
1784657090.3993,486,3022
1784657090.4020,491,3047
1784657090.4044,494,3051
1784657090.4066,496,3079
1784657090.4089,505,3087
1784657090.4111,506,3093
1784657090.4135,508,3086
1784657090.4161,505,3090
1784657090.4184,503,3067
1784657090.4207,503,3056
1784657090.4229,499,3062
1784657090.4251,494,3049
1784657090.4275,500,3044
1784657090.4297,500,3051
1784657090.4353,498,3034
1784657090.4381,496,3030
1784657090.4409,495,3024
1784657090.4435,500,3034
1784657090.4462,501,3027
1784657090.4485,504,3047
1784657090.4512,499,3038
1784657090.4541,496,3033
1784657090.4567,492,3024
1784657090.4591,487,3026
1784657090.4618,489,3015
1784657090.4650,490,3011
1784657090.4682,490,3020
1784657090.4711,494,3043
1784657090.4738,496,3048
1784657090.4762,496,3048
1784657090.4813,502,3087
1784657090.4841,506,3096
1784657090.4869,509,3088
1784657090.4895,505,3092
1784657090.4921,506,3071
1784657090.4951,500,3067
1784657090.4981,503,3052
1784657090.5011,499,3045
1784657090.5045,497,3042
1784657090.5085,497,3045
1784657090.5124,496,3030
1784657090.5154,495,3029
1784657090.5180,492,3018
1784657090.5206,491,3023
1784657090.5231,496,3049
1784657090.5284,498,3041
1784657090.5304,497,3036
1784657090.5324,493,3028
1784657090.5346,495,3040
1784657090.5367,498,3060
1784657090.5391,506,3095
1784657090.5414,509,3099
1784657090.5437,509,3072
1784657090.5459,507,3074
1784657090.5482,504,3071
1784657090.5506,500,3051
1784657090.5532,502,3063
1784657090.5555,496,3052
1784657090.5578,495,3038
1784657090.5601,495,3059
1784657090.5624,495,3032
1784657090.5646,496,3030
1784657090.5671,494,3048
1784657090.5694,491,3002
1784657090.5716,493,3043
1784657090.5769,496,3047
1784657090.5797,497,3049
1784657090.5824,495,3043
1784657090.5850,497,3036
1784657090.5876,496,3053
1784657090.5902,497,3052
1784657090.5934,495,3029
1784657090.5969,492,3029
1784657090.6005,491,3018
1784657090.6037,490,3023
1784657090.6074,490,3020
1784657090.6109,492,3018
1784657090.6144,488,3017
1784657090.6170,492,3022
1784657090.6227,490,3023
1784657090.6248,494,3058
1784657090.6268,498,3059
1784657090.6290,499,3062
1784657090.6311,498,3057
1784657090.6335,496,3052
1784657090.6362,497,3035
1784657090.6387,494,3040
1784657090.6418,497,3038
1784657090.6457,493,3032
1784657090.6498,492,3029
1784657090.6524,493,3035
1784657090.6563,490,3027
1784657090.6606,491,3023
1784657090.6645,490,3015
1784657090.6706,489,3022
1784657090.6732,492,3027
1784657090.6757,493,3043
1784657090.6781,494,3028
1784657090.6807,493,3029
1784657090.6833,492,3023
1784657090.6863,489,3021
1784657090.6893,491,3023
1784657090.6919,492,3030
1784657090.6948,490,3038
1784657090.6975,492,3028
1784657090.7004,498,3089
1784657090.7029,508,3117
1784657090.7054,509,3117
1784657090.7079,509,3099
1784657090.7105,509,3138
1784657090.7131,508,3115
1784657090.7181,506,3143
1784657090.7201,504,3070
1784657090.7221,501,3058
1784657090.7241,501,3054
1784657090.7262,501,3064
1784657090.7285,498,3042
1784657090.7306,497,3037
1784657090.7327,500,3066
1784657090.7351,498,3050
1784657090.7372,497,3053
1784657090.7393,482,3045
1784657090.7414,485,3041
1784657090.7437,489,3038
1784657090.7460,490,3043
1784657090.7484,488,3023
1784657090.7507,491,3022
1784657090.7529,489,3061
1784657090.7551,491,3040
1784657090.7574,490,3033
1784657090.7597,488,3020
1784657090.7655,491,3029
1784657090.7683,491,3024
1784657090.7709,493,3023
1784657090.7734,493,3025
1784657090.7760,490,3030
1784657090.7784,494,3027
1784657090.7806,487,3036
1784657090.7827,490,3016
1784657090.7850,489,3004
1784657090.7875,491,3007
1784657090.7897,491,3031
1784657090.7921,496,3051
1784657090.7948,502,3056
1784657090.7972,495,3026
1784657090.7995,494,3050
1784657090.8018,496,3072
1784657090.8041,498,3061
1784657090.8064,498,3058
1784657090.8105,498,3048
1784657090.8143,498,3045
1784657090.8170,493,3028
1784657090.8195,494,3027
1784657090.8220,494,3020
1784657090.8248,489,3015
1784657090.8276,497,3055
1784657090.8312,499,3060
1784657090.8345,500,3068
1784657090.8377,501,3055
1784657090.8408,502,3034
1784657090.8440,497,3065
1784657090.8471,496,3054
1784657090.8498,495,3040
1784657090.8525,496,3036
1784657090.8552,493,3026
1784657090.8617,493,3024
1784657090.8643,493,3039
1784657090.8672,493,3036
1784657090.8708,492,3022
1784657090.8751,491,3017
1784657090.8782,491,3023
1784657090.8808,494,3016
1784657090.8832,492,3023
1784657090.8859,502,3109
1784657090.8889,505,3087
1784657090.8918,502,3081
1784657090.8946,504,3071
1784657090.8971,501,3064
1784657090.8997,503,3106
1784657090.9028,500,3063
1784657090.9056,500,3058
1784657090.9085,500,3057
1784657090.9111,499,3042
1784657090.9138,497,3030
1784657090.9163,496,3028
1784657090.9200,494,3032
1784657090.9239,498,3056
1784657090.9259,501,3073
1784657090.9279,508,3084
1784657090.9301,507,3083
1784657090.9324,505,3092
1784657090.9347,503,3064
1784657090.9369,501,3032
1784657090.9390,500,3043
1784657090.9410,500,3048
1784657090.9432,499,3039
1784657090.9454,497,3038
1784657090.9475,494,3023
1784657090.9497,494,3018
1784657090.9524,498,3049
1784657090.9544,496,3046
1784657090.9566,505,3045
1784657090.9587,500,3061
1784657090.9608,499,3056
1784657090.9628,496,3045
1784657090.9650,496,3040
1784657090.9707,497,3060
1784657090.9734,497,3074
1784657090.9762,497,3051
1784657090.9787,496,3117
1784657090.9814,495,3009
1784657090.9840,492,3034
1784657090.9868,495,3025
1784657090.9894,497,3045
1784657090.9925,498,3059
1784657090.9960,498,3073
1784657090.9992,498,3048
1784657091.0022,498,3047
1784657091.0048,498,3031
1784657091.0072,496,3012
1784657091.0098,497,3042
1784657091.0125,498,3042
1784657091.0176,498,3048
1784657091.0198,494,3037
1784657091.0219,496,3036
1784657091.0240,495,3025
1784657091.0261,495,3022
1784657091.0286,489,3061
1784657091.0309,494,3040
1784657091.0335,498,3050
1784657091.0361,505,3061
1784657091.0384,507,3091
1784657091.0406,505,3061
1784657091.0428,501,3087
1784657091.0451,509,3065
1784657091.0474,502,3056
1784657091.0497,499,3050
1784657091.0519,497,3042
1784657091.0542,495,3037
1784657091.0565,497,3051
1784657091.0587,499,3053
1784657091.0627,497,3040
1784657091.0666,497,3033
1784657091.0694,494,2998
1784657091.0719,496,3048
1784657091.0746,495,3055
1784657091.0775,492,3030
1784657091.0803,493,3025
1784657091.0834,485,3041
1784657091.0864,489,3034
1784657091.0900,490,3027
1784657091.0932,491,3023
1784657091.0966,490,3014
1784657091.0990,497,3050
1784657091.1015,497,3053
1784657091.1040,497,3050
1784657091.1065,496,3043
1784657091.1118,495,3038
1784657091.1138,493,3034
1784657091.1159,488,3024
1784657091.1180,486,3020
1784657091.1201,489,3030
1784657091.1226,491,3042
1784657091.1248,490,3016
1784657091.1270,490,3027
1784657091.1293,495,3046
1784657091.1315,495,3037
1784657091.1342,497,3056
1784657091.1369,497,3059
1784657091.1391,502,3062
1784657091.1415,499,3068
1784657091.1437,499,3061
1784657091.1460,498,3052
1784657091.1484,495,3045
1784657091.1507,495,3043
1784657091.1530,493,3032
1784657091.1582,493,3023
1784657091.1610,492,3029
1784657091.1637,494,3041
1784657091.1662,493,3051
1784657091.1688,498,3059
1784657091.1719,498,3062
1784657091.1749,497,3052
1784657091.1782,497,3018
1784657091.1809,497,3043
1784657091.1837,495,3016
1784657091.1867,498,3058
1784657091.1899,499,3050
1784657091.1934,498,3047
1784657091.1965,497,3043
1784657091.1990,495,3010
1784657091.2016,493,3023
1784657091.2070,492,3021
1784657091.2099,492,3020
1784657091.2127,492,3043
1784657091.2152,492,3044
1784657091.2178,493,3030
1784657091.2205,494,3036
1784657091.2229,493,3038
1784657091.2259,492,3029
1784657091.2288,493,2999
1784657091.2314,491,3009
1784657091.2339,493,3027
1784657091.2367,492,3030
1784657091.2394,490,3034
1784657091.2420,491,3039
1784657091.2449,492,3038
1784657091.2474,491,3038
1784657091.2531,493,3029
1784657091.2557,491,3026
1784657091.2582,490,3019
1784657091.2606,493,3027
1784657091.2632,491,3024
1784657091.2658,490,3017
1784657091.2686,495,3027
1784657091.2716,495,3025
1784657091.2743,496,3038
1784657091.2771,496,3039
1784657091.2800,494,3034
1784657091.2826,490,3018
1784657091.2851,492,3030
1784657091.2876,498,3046
1784657091.2903,497,3083
1784657091.2927,501,3085
1784657091.2952,501,3070
1784657091.3026,501,3062
1784657091.3049,505,3051
1784657091.3074,503,3060
1784657091.3099,499,3033
1784657091.3125,498,3019
1784657091.3148,496,3024
1784657091.3175,498,3056
1784657091.3203,499,3053
1784657091.3229,499,3054
1784657091.3254,498,3047
1784657091.3280,496,3040
1784657091.3304,495,3036
1784657091.3327,496,3055
1784657091.3350,495,3047
1784657091.3377,495,3059
1784657091.3404,496,3028
1784657091.3429,491,3012
1784657091.3458,492,3019
1784657091.3485,490,3027
1784657091.3510,490,3019
1784657091.3538,489,3000
1784657091.3562,489,3016
1784657091.3589,491,3043
1784657091.3640,493,3039
1784657091.3662,492,3030
1784657091.3682,492,3035
1784657091.3702,494,3043
1784657091.3726,492,3037
1784657091.3750,495,3050
1784657091.3774,492,3047
1784657091.3797,490,3037
1784657091.3821,494,3039
1784657091.3849,493,3036
1784657091.3871,492,3025
1784657091.3894,490,3015
1784657091.3918,490,3038
1784657091.3940,488,3033
1784657091.3964,492,3024
1784657091.3987,497,3066
1784657091.4009,497,3057
1784657091.4031,502,3045
1784657091.4054,498,3042
1784657091.4110,497,3046
1784657091.4137,494,3028
1784657091.4166,492,3028
1784657091.4191,495,3040
1784657091.4218,494,3032
1784657091.4245,493,3036
1784657091.4274,492,3022
1784657091.4308,492,3013
1784657091.4343,492,3036
1784657091.4373,491,3030
1784657091.4411,490,3060
1784657091.4444,491,3044
1784657091.4480,491,3029
1784657091.4509,489,3029
1784657091.4535,490,3017
1784657091.4593,491,3014
1784657091.4620,490,3017
1784657091.4647,494,3051
1784657091.4672,497,3064
1784657091.4702,496,3054
1784657091.4737,497,3038
1784657091.4771,492,3044
1784657091.4805,497,3047
1784657091.4836,498,3032
1784657091.4868,500,3072
1784657091.4901,497,3040
1784657091.4934,499,3057
1784657091.4969,499,3055
1784657091.4997,500,3055
1784657091.5058,497,3058
1784657091.5087,499,3056
1784657091.5114,498,3050
1784657091.5139,497,3042
1784657091.5165,497,3031
1784657091.5197,494,3054
1784657091.5230,490,3029
1784657091.5261,493,3026
1784657091.5294,497,3053
1784657091.5321,496,3041
1784657091.5354,496,3038
1784657091.5389,496,3076
1784657091.5429,495,3017
1784657091.5461,494,3027
1784657091.5509,492,3028
1784657091.5543,491,3025
1784657091.5564,494,3025
1784657091.5584,495,3017
1784657091.5604,496,3034
1784657091.5629,497,3046
1784657091.5652,500,3072
1784657091.5680,500,3077
1784657091.5703,500,3058
1784657091.5725,501,3056
1784657091.5747,505,3052
1784657091.5769,500,3037
1784657091.5791,500,3032
1784657091.5814,505,3045
1784657091.5837,500,3052
1784657091.5859,496,3041
1784657091.5881,494,3038
1784657091.5905,493,3022
1784657091.5927,494,3022
1784657091.5949,499,3038
1784657091.6008,508,3083
1784657091.6031,509,3099
1784657091.6054,507,3076
1784657091.6075,502,3092
1784657091.6096,503,3070
1784657091.6120,503,3084
1784657091.6144,500,3060
1784657091.6169,501,3058
1784657091.6194,498,3055
1784657091.6217,497,3060
1784657091.6240,495,3037
1784657091.6263,495,3050
1784657091.6288,495,3049
1784657091.6311,494,3035
1784657091.6334,491,3036
1784657091.6357,487,3020
1784657091.6379,485,3021
1784657091.6402,494,3049
1784657091.6425,498,3061
1784657091.6481,499,3092
1784657091.6505,500,3044
1784657091.6527,496,3041
1784657091.6549,500,3049
1784657091.6573,499,3049
1784657091.6596,497,3043
1784657091.6619,498,3067
1784657091.6641,502,3073
1784657091.6666,505,3064
1784657091.6691,509,3082
1784657091.6714,508,3073
1784657091.6737,507,3065
1784657091.6760,511,3121
1784657091.6783,515,3115
1784657091.6806,514,3108
1784657091.6828,514,3119
1784657091.6851,516,3095
1784657091.6874,512,3063
1784657091.6897,512,3069
1784657091.6951,511,3073
1784657091.6974,511,3085
1784657091.6998,516,3113
1784657091.7023,514,3106
1784657091.7047,513,3112
1784657091.7071,511,3095
1784657091.7094,511,3083
1784657091.7116,511,3074
1784657091.7138,509,3072
1784657091.7164,508,3067
1784657091.7188,512,3117
1784657091.7211,513,3108
1784657091.7237,510,3098
1784657091.7259,510,3091
1784657091.7283,513,3084
1784657091.7306,499,3063
1784657091.7328,499,3061
1784657091.7351,498,3065
1784657091.7374,510,3151
1784657091.7435,511,3134
1784657091.7463,511,3091
1784657091.7490,514,3122
1784657091.7515,509,3114
1784657091.7542,511,3099
1784657091.7571,510,3100
1784657091.7604,512,3095
1784657091.7637,512,3114
1784657091.7669,520,3163
1784657091.7700,522,3157
1784657091.7721,522,3155
1784657091.7758,522,3140
1784657091.7793,523,3134
1784657091.7826,520,3125
1784657091.7852,518,3129
1784657091.7939,517,3112
1784657091.7967,525,3154
1784657091.7993,524,3149
1784657091.8018,520,3136
1784657091.8042,520,3141
1784657091.8067,517,3123
1784657091.8091,517,3118
1784657091.8114,517,3111
1784657091.8134,514,3098
1784657091.8158,509,3097
1784657091.8192,508,3088
1784657091.8228,506,3087
1784657091.8268,506,3029
1784657091.8296,506,3072
1784657091.8320,502,3061
1784657091.8347,500,3056
1784657091.8373,500,3041
1784657091.8398,498,3036
1784657091.8422,499,3065
1784657091.8447,498,3070
1784657091.8472,497,3052
1784657091.8531,495,3042
1784657091.8558,494,3056
1784657091.8585,496,3026
1784657091.8610,494,3021
1784657091.8638,499,3067
1784657091.8668,498,3058
1784657091.8701,497,3056
1784657091.8737,500,3088
1784657091.8772,504,3076
1784657091.8802,503,3062
1784657091.8829,498,3066
1784657091.8856,506,3054
1784657091.8881,505,3043
1784657091.8910,499,3032
1784657091.8937,496,3026
1784657091.8997,492,3029
1784657091.9024,491,3034
1784657091.9051,493,3024
1784657091.9077,492,3019
1784657091.9104,492,2981
1784657091.9141,490,3007
1784657091.9172,489,3000
1784657091.9203,491,3029
1784657091.9241,491,3033
1784657091.9280,492,3039
1784657091.9308,495,3036
1784657091.9335,495,3035
1784657091.9363,494,3060
1784657091.9390,494,3021
1784657091.9418,494,3038
1784657091.9480,495,3040
1784657091.9509,492,3031
1784657091.9536,489,3019
1784657091.9563,492,3014
1784657091.9590,492,3014
1784657091.9621,491,3020
1784657091.9650,490,3011
1784657091.9680,492,3032
1784657091.9720,498,3050
1784657091.9753,498,3056
1784657091.9790,493,3048
1784657091.9819,496,3022
1784657091.9847,495,3041
1784657091.9874,495,3036
1784657091.9902,494,3028
1784657091.9964,493,3022
1784657091.9988,490,3020
1784657092.0011,490,3023
1784657092.0032,489,3013
1784657092.0055,487,3004
1784657092.0090,486,3017
1784657092.0129,493,3051
1784657092.0161,497,3048
1784657092.0192,495,3036
1784657092.0228,494,3050
1784657092.0262,493,3055
1784657092.0296,492,3049
1784657092.0323,493,3033
1784657092.0347,494,3038
1784657092.0372,490,3022
1784657092.0432,490,2993
1784657092.0460,493,3041
1784657092.0487,497,3055
1784657092.0512,495,3046
1784657092.0540,494,3043
1784657092.0568,495,3038
1784657092.0601,492,3028
1784657092.0634,499,3057
1784657092.0663,500,3055
1784657092.0694,505,3054
1784657092.0729,502,3050
1784657092.0764,497,3030
1784657092.0795,494,3035
1784657092.0822,494,3024
1784657092.0850,494,3022
1784657092.0906,491,3046
1784657092.0927,491,3022
1784657092.0948,498,3070
1784657092.0970,501,3050
1784657092.0995,499,3051
1784657092.1021,499,3057
1784657092.1044,497,3046
1784657092.1067,497,2991
1784657092.1089,499,3042
1784657092.1111,497,3041
1784657092.1134,494,3015
1784657092.1161,495,3022
1784657092.1188,492,3020
1784657092.1211,487,3024
1784657092.1234,492,3042
1784657092.1257,498,3061
1784657092.1279,498,3028
1784657092.1301,501,3058
1784657092.1337,500,3067
1784657092.1388,500,3051
1784657092.1416,495,3042
1784657092.1443,495,3045
1784657092.1468,496,3055
1784657092.1497,494,3040
1784657092.1525,493,3031
1784657092.1554,496,3037
1784657092.1592,497,3031
1784657092.1619,498,3040
1784657092.1645,497,3032
1784657092.1671,494,3055
1784657092.1694,498,3083
1784657092.1722,502,3080
1784657092.1749,498,3064
1784657092.1776,500,3058
1784657092.1836,502,3062
1784657092.1855,497,3047
1784657092.1875,502,3042
1784657092.1896,495,3033
1784657092.1917,492,3027
1784657092.1938,490,3018
1784657092.1963,491,3033
1784657092.1985,498,3073
1784657092.2011,499,3060
1784657092.2032,500,3041
1784657092.2054,497,3038
1784657092.2075,495,3035
1784657092.2096,494,3020
1784657092.2118,495,3021
1784657092.2139,492,3019
1784657092.2160,495,3026
1784657092.2181,495,3032
1784657092.2203,495,3031
1784657092.2224,502,3071
1784657092.2245,506,3036
1784657092.2305,499,3060
1784657092.2330,497,3046
1784657092.2355,498,3035
1784657092.2379,495,3028
1784657092.2404,496,3040
1784657092.2429,492,3001
1784657092.2459,493,3018
1784657092.2491,490,2992
1784657092.2518,492,3011
1784657092.2547,489,2999
1784657092.2575,488,3017
1784657092.2601,490,3028
1784657092.2627,490,3023
1784657092.2654,496,3051
1784657092.2680,493,3024
1784657092.2708,499,3052
1784657092.2735,501,3062
1784657092.2790,505,3089
1784657092.2812,503,3081
1784657092.2832,501,3077
1784657092.2854,505,3079
1784657092.2877,505,3094
1784657092.2904,503,3061
1784657092.2928,499,3056
1784657092.2951,500,3048
1784657092.2974,498,3079
1784657092.3002,497,3039
1784657092.3025,495,3034
1784657092.3047,496,3033
1784657092.3070,496,3042
1784657092.3093,501,3048
1784657092.3116,500,3041
1784657092.3138,501,3042
1784657092.3161,504,3029
1784657092.3185,497,3026
1784657092.3207,495,3024
1784657092.3270,498,3015
1784657092.3298,497,3018
1784657092.3325,496,3032
1784657092.3350,497,3033
1784657092.3381,494,3032
1784657092.3414,494,3027
1784657092.3443,494,3023
1784657092.3474,494,3041
1784657092.3500,496,3056
1784657092.3540,498,3056
1784657092.3577,499,3024
1784657092.3611,498,3042
1784657092.3641,496,3019
1784657092.3669,498,3030
1784657092.3737,494,3020
1784657092.3764,491,3016
1784657092.3791,493,3030
1784657092.3817,494,3040
1784657092.3847,495,3045
1784657092.3877,499,3061
1784657092.3912,499,3061
1784657092.3948,494,3054
1784657092.3977,496,3064
1784657092.4005,495,3050
1784657092.4044,493,3050
1784657092.4077,490,3039
1784657092.4113,488,3032
1784657092.4140,491,3036
1784657092.4198,492,3036
1784657092.4227,495,3030
1784657092.4254,492,3018
1784657092.4280,498,3054
1784657092.4305,499,3073
1784657092.4333,501,3089
1784657092.4366,502,3093
1784657092.4397,508,3094
1784657092.4431,509,3083
1784657092.4460,508,3071
1784657092.4488,502,3082
1784657092.4518,501,3061
1784657092.4552,500,3065
1784657092.4588,498,3014
1784657092.4620,495,3043
1784657092.4682,496,3012
1784657092.4702,494,3030
1784657092.4723,493,3046
1784657092.4744,494,3016
1784657092.4766,493,3023
1784657092.4794,493,3038
1784657092.4820,493,3043
1784657092.4846,493,3041
1784657092.4869,493,3040
1784657092.4891,492,3024
1784657092.4915,493,3026
1784657092.4937,493,3024
1784657092.4959,492,3017
1784657092.4982,490,3016
1784657092.5005,492,3020
1784657092.5027,492,3015
1784657092.5049,491,3019
1784657092.5074,497,3046
1784657092.5096,495,3057
1784657092.5160,496,3043
1784657092.5188,498,3039
1784657092.5215,498,3033
1784657092.5240,500,3037
1784657092.5268,498,3052
1784657092.5299,499,3060
1784657092.5328,506,3046
1784657092.5364,502,3020
1784657092.5399,501,3028
1784657092.5434,499,3023
1784657092.5462,497,3022
1784657092.5489,493,3022
1784657092.5515,489,3012
1784657092.5540,490,3003
1784657092.5566,494,3022
1784657092.5592,497,3032
1784657092.5617,494,3028
1784657092.5644,490,3022
1784657092.5671,492,3015
1784657092.5696,488,3002
1784657092.5725,491,3031
1784657092.5784,495,3046
1784657092.5804,499,3059
1784657092.5826,511,3087
1784657092.5847,510,3080
1784657092.5870,507,3076
1784657092.5894,507,3069
1784657092.5917,506,3018
1784657092.5939,498,3057
1784657092.5961,499,3068
1784657092.5988,497,3052
1784657092.6014,498,3041
1784657092.6037,495,3026
1784657092.6060,492,3024
1784657092.6084,493,3022
1784657092.6106,493,3033
1784657092.6129,495,3040
1784657092.6153,494,3043
1784657092.6176,491,3049
1784657092.6198,492,3032
1784657092.6263,493,3021
1784657092.6290,489,3008
1784657092.6317,496,3039
1784657092.6342,497,3056
1784657092.6372,498,3052
1784657092.6395,495,3047
1784657092.6420,494,3034
1784657092.6448,493,3041
1784657092.6476,498,3054
1784657092.6505,500,3040
1784657092.6531,498,3041
1784657092.6558,498,3033
1784657092.6585,495,3031
1784657092.6615,493,3026
1784657092.6639,492,2984
1784657092.6665,492,3024
1784657092.6727,496,3041
1784657092.6753,498,3038
1784657092.6777,498,3043
1784657092.6801,505,3088
1784657092.6827,504,3085
1784657092.6854,500,3083
1784657092.6885,502,3102
1784657092.6914,499,3065
1784657092.6942,500,3057
1784657092.6967,500,3048
1784657092.6994,501,3058
1784657092.7021,497,3036
1784657092.7049,496,3043
1784657092.7076,493,3018
1784657092.7103,491,3015
1784657092.7131,494,3029
1784657092.7177,493,3067
1784657092.7218,500,3075
1784657092.7243,501,3092
1784657092.7266,500,3061
1784657092.7291,500,3056
1784657092.7318,499,3054
1784657092.7348,502,3041
1784657092.7378,500,3036
1784657092.7407,497,3013
1784657092.7435,494,3019
1784657092.7462,492,3017
1784657092.7489,497,3061
1784657092.7525,500,3064
1784657092.7563,506,3084
1784657092.7601,507,3088
1784657092.7630,506,3070
1784657092.7656,502,3081
1784657092.7682,501,3067
1784657092.7707,502,3049
1784657092.7732,500,3046
1784657092.7757,498,3046
1784657092.7820,499,3038
1784657092.7848,495,3023
1784657092.7877,492,3021
1784657092.7902,491,3009
1784657092.7928,491,3021
1784657092.7952,495,3034
1784657092.7978,492,3065
1784657092.8008,496,3062
1784657092.8030,497,3058
1784657092.8051,496,3056
1784657092.8071,486,3046
1784657092.8094,479,3050
1784657092.8115,482,3035
1784657092.8137,485,3029
1784657092.8159,490,3021
1784657092.8180,487,3011
1784657092.8203,494,3038
1784657092.8225,493,3035
1784657092.8270,492,3032
1784657092.8308,495,3026
1784657092.8331,496,3057
1784657092.8351,497,3061
1784657092.8372,499,3056
1784657092.8392,498,3082
1784657092.8414,496,3044
1784657092.8437,497,3035
1784657092.8460,493,3056
1784657092.8485,493,3018
1784657092.8511,490,3017
1784657092.8535,491,3011
1784657092.8557,490,3020
1784657092.8583,494,3034
1784657092.8606,499,3053
1784657092.8628,497,3044
1784657092.8654,497,3032
1784657092.8676,492,3047
1784657092.8698,493,3024
1784657092.8759,492,3019
1784657092.8781,493,3039
1784657092.8804,499,3050
1784657092.8827,499,3043
1784657092.8849,497,3036
1784657092.8874,494,3036
1784657092.8897,492,3021
1784657092.8919,494,3011
1784657092.8941,493,3012
1784657092.8964,498,3049
1784657092.8989,500,3061
1784657092.9016,500,3054
1784657092.9039,511,3093
1784657092.9063,511,3069
1784657092.9085,513,3128
1784657092.9107,512,3115
1784657092.9129,512,3112
1784657092.9153,512,3104
1784657092.9175,511,3102
1784657092.9235,513,3087
1784657092.9263,514,3121
1784657092.9290,515,3120
1784657092.9315,513,3115
1784657092.9342,512,3109
1784657092.9370,511,3104
1784657092.9401,511,3088
1784657092.9435,511,3090
1784657092.9465,510,3083
1784657092.9491,510,3073
1784657092.9530,508,3063
1784657092.9570,506,3050
1784657092.9605,498,3054
1784657092.9630,502,3044
1784657092.9657,511,3117
1784657092.9718,510,3109
1784657092.9739,515,3150
1784657092.9760,544,3299
1784657092.9780,576,3491
1784657092.9804,580,3465
1784657092.9828,585,3462
1784657092.9850,586,3453
1784657092.9874,590,3457
1784657092.9896,587,3402
1784657092.9919,589,3416
1784657092.9941,589,3457
1784657092.9964,586,3403
1784657092.9994,584,3395
1784657093.0023,581,3403
1784657093.0068,577,3365
1784657093.0111,577,3361
1784657093.0177,574,3350
1784657093.0204,574,3348
1784657093.0232,574,3341
1784657093.0257,561,3332
1784657093.0284,564,3326
1784657093.0315,564,3315
1784657093.0348,563,3308
1784657093.0382,560,3294
1784657093.0417,559,3279
1784657093.0449,557,3277
1784657093.0476,558,3274
1784657093.0502,556,3267
1784657093.0529,555,3258
1784657093.0554,557,3246
1784657093.0580,549,3243
1784657093.0605,545,3234
1784657093.0630,543,3214
1784657093.0657,542,3229
1784657093.0682,559,3323
1784657093.0707,563,3311
1784657093.0734,564,3309
1784657093.0779,559,3304
1784657093.0823,566,3360
1784657093.0851,568,3351
1784657093.0877,605,3682
1784657093.0902,634,3781
1784657093.0932,641,3757
1784657093.0960,645,3739
1784657093.0992,645,3731
1784657093.1023,647,3713
1784657093.1054,647,3698
1784657093.1092,648,3681
1784657093.1125,647,3673
1784657093.1154,644,3662
1784657093.1181,643,3651
1784657093.1210,641,3639
1784657093.1275,638,3628
1784657093.1295,635,3594
1784657093.1316,632,3579
1784657093.1336,629,3579
1784657093.1358,625,3584
1784657093.1382,622,3560
1784657093.1408,622,3547
1784657093.1431,617,3541
1784657093.1455,615,3548
1784657093.1480,616,3517
1784657093.1506,613,3512
1784657093.1529,610,3497
1784657093.1553,608,3486
1784657093.1576,604,3475
1784657093.1598,604,3461
1784657093.1620,602,3454
1784657093.1643,600,3445
1784657093.1667,598,3442
1784657093.1690,595,3429
1784657093.1750,590,3417
1784657093.1773,586,3406
1784657093.1795,582,3406
1784657093.1817,579,3391
1784657093.1841,578,3390
1784657093.1866,578,3338
1784657093.1888,603,3607
1784657093.1911,607,3565
1784657093.1934,629,3714
1784657093.1956,681,4095
1784657093.1981,702,4095
1784657093.2008,710,4095
1784657093.2031,715,4095
1784657093.2054,718,4095
1784657093.2077,719,4088
1784657093.2099,720,4076
1784657093.2121,720,4040
1784657093.2145,717,4052
1784657093.2167,714,4027
1784657093.2259,709,3996
1784657093.2286,707,3992
1784657093.2313,705,3972
1784657093.2344,703,3953
1784657093.2372,701,3939
1784657093.2401,699,3919
1784657093.2434,694,3910
1784657093.2467,691,3892
1784657093.2498,687,3862
1784657093.2528,684,3846
1784657093.2561,685,3841
1784657093.2601,681,3804
1784657093.2628,676,3806
1784657093.2655,674,3788
1784657093.2680,675,3806
1784657093.2705,669,3771
1784657093.2731,664,3764
1784657093.2757,661,3739
1784657093.2784,658,3723
1784657093.2845,656,3690
1784657093.2872,655,3701
1784657093.2898,651,3677
1784657093.2924,646,3676
1784657093.2949,644,3663
1784657093.2980,640,3647
1784657093.3009,640,3635
1784657093.3043,637,3625
1784657093.3078,634,3610
1784657093.3110,632,3596
1784657093.3138,632,3581
1784657093.3164,630,3575
1784657093.3189,627,3557
1784657093.3215,624,3607
1784657093.3241,621,3532
1784657093.3267,619,3529
1784657093.3326,618,3520
1784657093.3346,636,3662
1784657093.3367,657,3816
1784657093.3387,661,3791
1784657093.3409,665,3778
1784657093.3433,658,3761
1784657093.3456,656,3750
1784657093.3481,657,3684
1784657093.3506,656,3713
1784657093.3530,653,3711
1784657093.3553,652,3690
1784657093.3575,649,3681
1784657093.3598,648,3670
1784657093.3621,645,3658
1784657093.3644,641,3644
1784657093.3666,640,3629
1784657093.3689,636,3621
1784657093.3712,638,3655
1784657093.3735,635,3595
1784657093.3794,631,3589
1784657093.3821,628,3571
1784657093.3849,626,3551
1784657093.3874,620,3563
1784657093.3900,619,3537
1784657093.3928,617,3528
1784657093.3961,616,3514
1784657093.3993,612,3502
1784657093.4033,611,3496
1784657093.4066,609,3477
1784657093.4100,608,3472
1784657093.4126,603,3469
1784657093.4152,601,3456
1784657093.4179,599,3445
1784657093.4205,595,3439
1784657093.4266,593,3428
1784657093.4286,592,3418
1784657093.4308,588,3408
1784657093.4330,586,3400
1784657093.4350,583,3389
1784657093.4375,579,3382
1784657093.4398,572,3385
1784657093.4421,572,3362
1784657093.4444,573,3365
1784657093.4467,572,3351
1784657093.4492,568,3337
1784657093.4515,570,3328
1784657093.4538,566,3322
1784657093.4560,564,3310
1784657093.4583,561,3311
1784657093.4605,558,3294
1784657093.4627,560,3277
1784657093.4650,557,3282
1784657093.4672,557,3267
1784657093.4734,554,3272
1784657093.4761,552,3258
1784657093.4790,549,3252
1784657093.4815,547,3238
1784657093.4841,545,3235
1784657093.4874,544,3219
1784657093.4908,543,3217
1784657093.4940,542,3211
1784657093.4968,543,3206
1784657093.4996,540,3217
1784657093.5033,534,3205
1784657093.5072,532,3184
1784657093.5109,530,3178
1784657093.5136,530,3174
1784657093.5161,527,3158
1784657093.5225,529,3162
1784657093.5252,526,3146
1784657093.5279,525,3137
1784657093.5304,524,3131
1784657093.5331,519,3128
1784657093.5363,518,3120
1784657093.5396,516,3096
1784657093.5427,514,3112
1784657093.5454,518,3100
1784657093.5480,514,3092
1784657093.5513,513,3078
1784657093.5553,513,3085
1784657093.5588,510,3060
1784657093.5616,508,3066
1784657093.5644,499,3069
1784657093.5669,501,3052
1784657093.5696,500,3047
1784657093.5721,497,3044
1784657093.5747,496,3050
1784657093.5772,495,3024
1784657093.5806,489,3025
1784657093.5858,494,3036
1784657093.5886,493,3028
1784657093.5912,491,3053
1784657093.5937,494,3031
1784657093.5966,496,3044
1784657093.5999,495,3028
1784657093.6030,496,3041
1784657093.6064,498,3053
1784657093.6096,496,3073
1784657093.6130,494,3056
1784657093.6157,494,3029
1784657093.6184,494,3056
1784657093.6210,496,3032
1784657093.6238,492,3041
1784657093.6264,494,3043
1784657093.6321,495,3041
1784657093.6342,492,3038
1784657093.6364,494,3052
1784657093.6385,498,3054
1784657093.6409,498,3049
1784657093.6432,498,3039
1784657093.6455,499,3040
1784657093.6480,497,3029
1784657093.6504,498,3039
1784657093.6527,492,3009
1784657093.6549,491,3008
1784657093.6571,492,3033
1784657093.6594,492,3039
1784657093.6617,493,3036
1784657093.6640,493,3029
1784657093.6664,495,3035
1784657093.6686,494,3025
1784657093.6708,496,3074
1784657093.6732,489,3030
1784657093.6794,492,3019
1784657093.6816,494,3035
1784657093.6838,495,3040
1784657093.6861,495,3029
1784657093.6885,493,3031
1784657093.6908,493,3031
1784657093.6931,493,3014
1784657093.6954,488,3023
1784657093.6978,491,3048
1784657093.7002,492,3016
1784657093.7025,489,3024
1784657093.7048,496,3105
1784657093.7074,499,3050
1784657093.7097,504,3082
1784657093.7119,508,3087
1784657093.7142,508,3088
1784657093.7166,506,3089
1784657093.7189,504,3071
1784657093.7222,502,3074
1784657093.7271,500,3058
1784657093.7294,500,3056
1784657093.7316,498,3057
1784657093.7339,497,3033
1784657093.7364,496,3035
1784657093.7387,490,3032
1784657093.7410,493,3055
1784657093.7432,492,3033
1784657093.7456,498,3036
1784657093.7482,495,3016
1784657093.7507,495,3023
1784657093.7530,495,3025
1784657093.7553,493,3025
1784657093.7575,490,3018
1784657093.7598,489,3001
1784657093.7620,489,3003
1784657093.7645,488,3017
1784657093.7668,490,3022
1784657093.7724,492,3020
1784657093.7752,492,3022
1784657093.7780,492,3015
1784657093.7805,487,3015
1784657093.7830,490,3024
1784657093.7861,489,3024
1784657093.7893,486,3008
1784657093.7922,481,3005
1784657093.7954,490,3008
1784657093.7982,492,3019
1784657093.8012,493,3029
1784657093.8039,492,3026
1784657093.8067,492,3039
1784657093.8092,495,3050
1784657093.8117,495,3057
1784657093.8145,496,3054
1784657093.8209,497,3052
1784657093.8235,498,3040
1784657093.8260,495,3034
1784657093.8285,496,3029
1784657093.8311,492,3028
1784657093.8343,490,3018
1784657093.8386,493,3040
1784657093.8430,496,3054
1784657093.8468,497,3053
1784657093.8504,498,3055
1784657093.8541,497,3049
1784657093.8579,498,3041
1784657093.8616,497,3036
1784657093.8682,495,3035
1784657093.8709,498,3055
1784657093.8736,494,3083
1784657093.8762,497,3053
1784657093.8789,498,3058
1784657093.8819,500,3053
1784657093.8852,502,3039
1784657093.8882,499,3042
1784657093.8910,497,3033
1784657093.8937,493,3031
1784657093.8970,492,3019
1784657093.9001,494,3031
1784657093.9038,493,3022
1784657093.9073,493,3023
1784657093.9104,493,3020
1784657093.9161,491,3019
1784657093.9182,490,3004
1784657093.9203,489,3037
1784657093.9224,492,3034
1784657093.9245,492,3044
1784657093.9269,491,3028
1784657093.9293,492,3051
1784657093.9320,492,3018
1784657093.9344,491,3008
1784657093.9366,495,3023
1784657093.9388,496,3047
1784657093.9411,497,3052
1784657093.9434,500,3070
1784657093.9457,511,3111
1784657093.9481,515,3114
1784657093.9504,511,3091
1784657093.9527,511,3087
1784657093.9549,507,3087
1784657093.9572,503,3078
1784657093.9634,503,3064
1784657093.9656,501,3059
1784657093.9676,498,3054
1784657093.9696,499,3036
1784657093.9719,502,3052
1784657093.9744,501,3048
1784657093.9767,498,3036
1784657093.9789,494,3032
1784657093.9817,493,3022
1784657093.9841,491,3010
1784657093.9865,491,3022
1784657093.9887,491,3024
1784657093.9913,492,3047
1784657093.9935,498,3063
1784657093.9957,501,3089
1784657093.9979,501,3081
1784657094.0001,501,3080
1784657094.0024,500,3074
1784657094.0062,498,3054
1784657094.0125,498,3053
1784657094.0153,498,3045
1784657094.0179,495,3035
1784657094.0205,495,3040
1784657094.0237,493,3023
1784657094.0270,490,3020
1784657094.0300,492,3034
1784657094.0330,493,3045
1784657094.0365,497,3070
1784657094.0402,498,3060
1784657094.0435,499,3055
1784657094.0459,498,3045
1784657094.0486,498,3034
1784657094.0512,494,3033
1784657094.0539,494,3031
1784657094.0566,496,3060
1784657094.0592,499,3066
1784657094.0619,507,3098
1784657094.0645,507,3102
1784657094.0670,510,3091
1784657094.0732,509,3088
1784657094.0759,507,3079
1784657094.0786,507,3069
1784657094.0812,506,3055
1784657094.0845,501,3056
1784657094.0877,499,3048
1784657094.0907,496,3040
1784657094.0943,498,3037
1784657094.0970,495,3027
1784657094.1002,494,3044
1784657094.1040,491,3011
1784657094.1076,495,3044
1784657094.1107,493,3015
1784657094.1134,495,3031
1784657094.1194,496,3018
1784657094.1221,493,3024
1784657094.1249,491,3013
1784657094.1275,495,3008
1784657094.1301,496,3036
1784657094.1330,499,3060
1784657094.1361,499,3053
1784657094.1393,498,3058
1784657094.1427,498,3056
1784657094.1454,499,3042
1784657094.1481,499,3049
1784657094.1514,499,3045
1784657094.1553,495,3009
1784657094.1591,494,3034
1784657094.1619,496,3020
1784657094.1677,490,3021
1784657094.1698,485,3018
1784657094.1720,494,3046
1784657094.1740,492,3048
1784657094.1762,496,3040
1784657094.1788,495,3025
1784657094.1815,493,3037
1784657094.1840,491,3027
1784657094.1863,493,3040
1784657094.1885,494,3043
1784657094.1907,495,3052
1784657094.1930,494,3040
1784657094.1952,496,3036
1784657094.1976,495,3028
1784657094.1999,492,3024
1784657094.2022,490,3012
1784657094.2046,489,3017
1784657094.2068,492,3030
1784657094.2102,495,3054
1784657094.2151,501,3051
1784657094.2174,500,3053
1784657094.2195,505,3045
1784657094.2217,504,3064
1784657094.2242,507,3085
1784657094.2265,503,3065
1784657094.2288,500,3063
1784657094.2315,501,3061
1784657094.2338,500,3050
1784657094.2360,499,3041
1784657094.2384,498,3037
1784657094.2406,495,3026
1784657094.2430,492,3025
1784657094.2453,497,3060
1784657094.2475,500,3077
1784657094.2497,506,3089
1784657094.2519,506,3094
1784657094.2541,519,3087
1784657094.2599,513,3073
1784657094.2628,511,3085
1784657094.2656,510,3074
1784657094.2682,503,3058
1784657094.2708,500,3059
1784657094.2741,498,3048
1784657094.2771,499,3046
1784657094.2805,500,3054
1784657094.2838,512,3042
1784657094.2873,507,3038
1784657094.2912,501,3031
1784657094.2942,496,3027
1784657094.2974,494,3025
1784657094.3002,492,3019
1784657094.3030,494,3006
1784657094.3089,496,3046
1784657094.3110,495,3040
1784657094.3132,497,3030
1784657094.3154,495,3027
1784657094.3176,492,3036
1784657094.3200,495,3032
1784657094.3224,496,3041
1784657094.3247,498,3024
1784657094.3269,499,3035
1784657094.3293,498,3031
1784657094.3322,494,3030
1784657094.3345,495,3025
1784657094.3367,491,3016
1784657094.3389,492,3004
1784657094.3413,487,3010
1784657094.3435,488,3018
1784657094.3458,493,3025
1784657094.3481,494,3036
1784657094.3525,496,3039
1784657094.3564,497,3036
1784657094.3586,494,3023
1784657094.3606,491,3023
1784657094.3629,491,3027
1784657094.3654,491,3031
1784657094.3679,491,3022
1784657094.3701,495,3029
1784657094.3725,494,3037
1784657094.3747,495,3030
1784657094.3769,493,3033
1784657094.3792,491,3032
1784657094.3820,490,3022
1784657094.3844,489,3015
1784657094.3867,491,3027
1784657094.3890,496,3052
1784657094.3914,498,3061
1784657094.3937,505,3096
1784657094.3960,505,3095
1784657094.4022,504,3076
1784657094.4049,499,3070
1784657094.4077,501,3058
1784657094.4102,499,3056
1784657094.4130,499,3047
1784657094.4159,502,3064
1784657094.4194,502,3061
1784657094.4228,499,3048
1784657094.4260,507,3076
1784657094.4289,505,3092
1784657094.4313,500,3062
1784657094.4352,498,3050
1784657094.4388,498,3043
1784657094.4422,498,3040
1784657094.4470,496,3041
1784657094.4508,496,3037
1784657094.4530,493,3018
1784657094.4550,494,3033
1784657094.4571,495,3007
1784657094.4597,500,3044
1784657094.4624,498,3040
1784657094.4651,509,3060
1784657094.4675,501,3066
1784657094.4697,499,3044
1784657094.4720,498,3034
1784657094.4744,496,3039
1784657094.4768,493,3030
1784657094.4791,493,3023
1784657094.4814,492,3021
1784657094.4836,490,3018
1784657094.4858,490,3016
1784657094.4881,493,3038
1784657094.4904,489,3057
1784657094.4963,490,3046
1784657094.4986,491,3058
1784657094.5009,493,3045
1784657094.5031,492,3036
1784657094.5055,498,3047
1784657094.5078,496,3043
1784657094.5101,496,3026
1784657094.5124,502,3018
1784657094.5150,500,3043
1784657094.5174,497,3041
1784657094.5196,496,3041
1784657094.5218,494,3009
1784657094.5241,492,3023
1784657094.5265,493,3033
1784657094.5288,494,3030
1784657094.5310,493,3023
1784657094.5333,493,3025
1784657094.5356,495,3037
1784657094.5378,500,3065
1784657094.5437,510,3119
1784657094.5459,510,3155
1784657094.5483,510,3106
1784657094.5506,510,3092
1784657094.5529,509,3095
1784657094.5556,509,3087
1784657094.5579,504,3071
1784657094.5602,504,3077
1784657094.5626,502,3057
1784657094.5654,499,3060
1784657094.5676,499,3046
1784657094.5699,498,3045
1784657094.5724,498,3035
1784657094.5747,511,3052
1784657094.5769,508,3046
1784657094.5792,505,3053
1784657094.5816,499,3052
1784657094.5838,501,3067
1784657094.5881,501,3058
1784657094.5924,501,3037
1784657094.5951,500,3051
1784657094.5975,500,3030
1784657094.5997,499,3031
1784657094.6022,494,3023
1784657094.6056,490,3021
1784657094.6091,495,3018
1784657094.6124,501,3070
1784657094.6157,510,3092
1784657094.6188,511,3089
1784657094.6225,509,3094
1784657094.6256,511,3090
1784657094.6291,508,3083
1784657094.6316,498,3067
1784657094.6378,499,3070
1784657094.6399,500,3055
1784657094.6419,498,3049
1784657094.6440,498,3040
1784657094.6462,496,3034
1784657094.6486,496,3042
1784657094.6514,505,3054
1784657094.6536,498,3042
1784657094.6558,497,3010
1784657094.6581,494,3054
1784657094.6604,500,3070
1784657094.6628,507,3090
1784657094.6656,508,3095
1784657094.6679,507,3081
1784657094.6702,505,3079
1784657094.6725,502,3068
1784657094.6747,501,3060
1784657094.6770,501,3055
1784657094.6794,500,3056
1784657094.6861,504,3063
1784657094.6884,501,3057
1784657094.6906,507,3072
1784657094.6929,509,3087
1784657094.6954,505,3065
1784657094.6977,500,3052
1784657094.7000,499,3052
1784657094.7022,498,3050
1784657094.7045,498,3034
1784657094.7067,499,3026
1784657094.7090,496,3021
1784657094.7114,497,3033
1784657094.7141,501,3050
1784657094.7167,503,3097
1784657094.7189,508,3127
1784657094.7211,511,3093
1784657094.7234,510,3120
1784657094.7256,511,3108
1784657094.7299,510,3098
1784657094.7341,510,3091
1784657094.7368,509,3080
1784657094.7395,505,3076
1784657094.7420,502,3063
1784657094.7451,500,3061
1784657094.7481,501,3057
1784657094.7517,499,3046
1784657094.7554,499,3047
1784657094.7587,499,3035
1784657094.7615,499,3028
1784657094.7641,497,3021
1784657094.7669,501,3056
1784657094.7698,496,3046
1784657094.7727,498,3037
1784657094.7775,497,3038
1784657094.7818,497,2998
1784657094.7846,496,3051
1784657094.7871,505,3067
1784657094.7897,501,3062
1784657094.7928,499,3052
1784657094.7961,494,3053
1784657094.7994,496,3041
1784657094.8031,495,3015
1784657094.8068,495,3026
1784657094.8095,496,3045
1784657094.8123,496,3040
1784657094.8150,510,3034
1784657094.8175,508,3045
1784657094.8200,502,3063
1784657094.8226,499,3042
1784657094.8314,487,3039
1784657094.8335,489,3032
1784657094.8356,491,3036
1784657094.8376,500,3064
1784657094.8403,504,3064
1784657094.8425,499,3072
1784657094.8448,502,3071
1784657094.8474,484,3066
1784657094.8498,493,3059
1784657094.8521,493,3054
1784657094.8544,498,3050
1784657094.8565,498,3052
1784657094.8586,497,3039
1784657094.8610,495,3003
1784657094.8633,494,3036
1784657094.8656,494,3035
1784657094.8679,494,3029
1784657094.8702,495,3037
1784657094.8725,497,3033
1784657094.8746,494,3024
1784657094.8770,496,3017
1784657094.8794,491,3024
1784657094.8816,499,3054
1784657094.8838,497,3033
1784657094.8898,494,3041
1784657094.8925,499,3056
1784657094.8953,506,3079
1784657094.8979,504,3070
1784657094.9007,503,3066
1784657094.9037,501,3056
1784657094.9070,500,3045
1784657094.9100,497,3041
1784657094.9131,499,3035
1784657094.9164,507,3103
1784657094.9197,508,3099
1784657094.9232,510,3096
1784657094.9263,509,3087
1784657094.9289,508,3067
1784657094.9315,502,3061
1784657094.9375,495,3054
1784657094.9396,502,3032
1784657094.9417,502,3062
1784657094.9439,500,3054
1784657094.9462,497,3046
1784657094.9487,497,3035
1784657094.9510,498,3073
1784657094.9533,497,3040
1784657094.9555,502,3060
1784657094.9577,503,3050
1784657094.9599,499,3038
1784657094.9622,498,3054
1784657094.9652,500,3049
1784657094.9675,500,3054
1784657094.9697,499,3028
1784657094.9719,499,3040
1784657094.9742,497,3032
1784657094.9765,494,3030
1784657094.9787,496,3021
1784657094.9848,490,3022
1784657094.9876,490,3020
1784657094.9902,490,3020
1784657094.9927,491,3009
1784657094.9954,491,3014
1784657094.9987,495,3005
1784657095.0020,492,3036
1784657095.0052,492,3047
1784657095.0084,491,3033
1784657095.0111,492,3023
1784657095.0139,492,3025
1784657095.0170,492,3024
1784657095.0204,491,3019
1784657095.0240,491,3010
1784657095.0268,494,3058
1784657095.0329,500,3092
1784657095.0350,498,3082
1784657095.0372,497,3071
1784657095.0392,493,3068
1784657095.0415,496,3046
1784657095.0436,497,3050
1784657095.0463,497,3028
1784657095.0489,494,3035
1784657095.0512,494,3040
1784657095.0535,495,3039
1784657095.0557,494,3029
1784657095.0579,492,3024
1784657095.0604,498,3048
1784657095.0628,497,3050
1784657095.0650,505,3077
1784657095.0672,501,3072
1784657095.0695,500,3044
1784657095.0717,505,3073
1784657095.0739,498,3057
1784657095.0804,499,3056
1784657095.0832,498,3048
1784657095.0859,499,3040
1784657095.0886,498,3041
1784657095.0916,494,3022
1784657095.0950,498,2994
1784657095.0980,492,3031
1784657095.1017,492,3018
1784657095.1052,491,3022
1784657095.1087,493,3020
1784657095.1112,490,3009
1784657095.1139,490,3009
1784657095.1166,491,3023
1784657095.1191,507,3066
1784657095.1254,506,3065
1784657095.1275,502,3062
1784657095.1296,512,3066
1784657095.1317,510,3054
1784657095.1338,507,3055
1784657095.1360,504,3047
1784657095.1384,506,3003
1784657095.1407,501,3027
1784657095.1429,499,3039
1784657095.1453,497,3025
1784657095.1479,494,3023
1784657095.1501,499,3042
1784657095.1524,500,3069
1784657095.1547,497,3034
1784657095.1570,499,3083
1784657095.1593,509,3090
1784657095.1615,505,3098
1784657095.1638,506,3070
1784657095.1661,506,3065
1784657095.1726,506,3060
1784657095.1754,501,3053
1784657095.1781,500,3047
1784657095.1807,501,3062
1784657095.1834,500,3054
1784657095.1866,499,3041
1784657095.1896,496,3043
1784657095.1925,495,3029
1784657095.1954,496,3031
1784657095.1985,498,3073
1784657095.2021,511,3104
1784657095.2058,511,3096
1784657095.2087,511,3105
1784657095.2112,511,3098
1784657095.2137,511,3073
1784657095.2201,511,3111
1784657095.2222,511,3100
1784657095.2242,510,3089
1784657095.2264,510,3079
1784657095.2286,512,3078
1784657095.2311,506,3066
1784657095.2335,503,3061
1784657095.2357,499,3056
1784657095.2379,499,3046
1784657095.2402,504,3046
1784657095.2425,498,3041
1784657095.2447,500,3047
1784657095.2476,500,3044
1784657095.2500,499,3060
1784657095.2524,499,3019
1784657095.2546,495,3038
1784657095.2568,497,3039
1784657095.2590,490,3033
1784657095.2613,495,3018
1784657095.2673,493,3024
1784657095.2700,496,3026
1784657095.2727,503,3079
1784657095.2753,505,3055
1784657095.2778,498,3056
1784657095.2810,498,3057
1784657095.2844,506,3094
1784657095.2874,499,3087
1784657095.2906,500,3062
1784657095.2932,500,3069
1784657095.2959,502,3061
1784657095.2993,502,3065
1784657095.3031,501,3046
1784657095.3065,498,3040
1784657095.3099,499,3053
1784657095.3158,498,3039
1784657095.3178,496,3041
1784657095.3198,496,3035
1784657095.3219,494,3043
1784657095.3244,510,3121
1784657095.3268,513,3139
1784657095.3294,512,3143
1784657095.3319,511,3127
1784657095.3342,513,3114
1784657095.3364,510,3109
1784657095.3387,510,3069
1784657095.3409,511,3085
1784657095.3433,511,3077
1784657095.3456,509,3068
1784657095.3478,502,3066
1784657095.3502,500,3056
1784657095.3525,500,3036
1784657095.3547,498,3045
1784657095.3569,497,3041
1784657095.3631,498,3039
1784657095.3658,496,3037
1784657095.3685,497,3026
1784657095.3710,499,3034
1784657095.3737,500,3047
1784657095.3770,499,3043
1784657095.3798,496,3032
1784657095.3833,500,3069
1784657095.3871,503,3082
1784657095.3908,507,3088
1784657095.3935,506,3066
1784657095.3962,501,3069
1784657095.3988,504,3070
1784657095.4014,506,3084
1784657095.4039,499,3075
1784657095.4105,499,3058
1784657095.4133,501,3051
1784657095.4160,500,3056
1784657095.4185,498,3045
1784657095.4213,499,3080
1784657095.4242,498,3039
1784657095.4271,494,3022
1784657095.4297,492,3020
1784657095.4331,493,3032
1784657095.4364,490,3023
1784657095.4401,495,3028
1784657095.4436,499,3054
1784657095.4465,497,3041
1784657095.4491,496,3037
1784657095.4517,494,3036
1784657095.4580,494,3017
1784657095.4608,491,3028
1784657095.4634,496,3058
1784657095.4660,497,3053
1784657095.4689,496,3016
1784657095.4720,499,3036
1784657095.4748,498,3028
1784657095.4779,495,3025
1784657095.4809,497,3027
1784657095.4844,495,3031
1784657095.4878,494,3028
1784657095.4914,494,3020
1784657095.4940,493,3016
1784657095.4967,493,3035
1784657095.4996,496,3038
1784657095.5024,495,3023
1784657095.5051,498,3070
1784657095.5078,503,3088
1784657095.5102,505,3100
1784657095.5127,501,3086
1784657095.5188,502,3076
1784657095.5215,507,3064
1784657095.5243,505,3063
1784657095.5268,499,3065
1784657095.5295,500,3049
1784657095.5329,501,3042
1784657095.5360,505,3066
1784657095.5393,507,3088
1784657095.5419,509,3088
1784657095.5445,509,3088
1784657095.5477,507,3084
1784657095.5510,507,3070
1784657095.5544,504,3066
1784657095.5578,509,3102
1784657095.5608,511,3112
1784657095.5672,509,3102
1784657095.5699,508,3132
1784657095.5727,509,3084
1784657095.5752,509,3081
1784657095.5778,506,3066
1784657095.5811,502,3057
1784657095.5847,502,3050
1784657095.5881,498,3049
1784657095.5914,496,3048
1784657095.5945,500,3028
1784657095.5970,498,3031
1784657095.5994,498,3021
1784657095.6019,497,3030
1784657095.6045,493,3027
1784657095.6070,493,3018
1784657095.6130,498,3071
1784657095.6152,497,3061
1784657095.6172,506,3087
1784657095.6192,506,3087
1784657095.6214,505,3079
1784657095.6239,501,3068
1784657095.6262,510,3067
1784657095.6288,505,3059
1784657095.6314,499,3044
1784657095.6337,501,3056
1784657095.6359,505,3080
1784657095.6381,508,3093
1784657095.6405,507,3087
1784657095.6427,507,3068
1784657095.6449,504,3072
1784657095.6471,500,3066
1784657095.6494,499,3053
1784657095.6518,499,3077
1784657095.6541,499,3054
1784657095.6601,507,3091
1784657095.6625,509,3076
1784657095.6648,508,3069
1784657095.6670,507,3062
1784657095.6694,501,3055
1784657095.6718,500,3056
1784657095.6741,503,3085
1784657095.6764,505,3083
1784657095.6789,508,3099
1784657095.6816,508,3087
1784657095.6839,506,3096
1784657095.6861,502,3066
1784657095.6887,502,3060
1784657095.6909,501,3046
1784657095.6933,501,3051
1784657095.6954,503,3071
1784657095.6977,511,3108
1784657095.6999,515,3113
1784657095.7023,522,3120
1784657095.7085,515,3114
1784657095.7112,516,3103
1784657095.7139,514,3092
1784657095.7165,513,3120
1784657095.7192,512,3087
1784657095.7220,511,3069
1784657095.7251,508,3066
1784657095.7281,506,3061
1784657095.7310,501,3035
1784657095.7344,495,3049
1784657095.7372,496,3046
1784657095.7404,500,3020
1784657095.7435,498,3047
1784657095.7462,499,3075
1784657095.7490,509,3084
1784657095.7551,505,3069
1784657095.7572,505,3080
1784657095.7594,501,3069
1784657095.7615,505,3064
1784657095.7637,501,3050
1784657095.7661,498,3029
1784657095.7684,500,3056
1784657095.7707,500,3055
1784657095.7729,500,3050
1784657095.7753,500,3024
1784657095.7776,497,3037
1784657095.7804,496,3029
1784657095.7830,496,3023
1784657095.7855,494,3016
1784657095.7877,499,3058
1784657095.7899,499,3055
1784657095.7922,500,3065
1784657095.7945,499,3042
1784657095.7968,501,3056
1784657095.8033,500,3053
1784657095.8060,498,3035
1784657095.8087,495,3037
1784657095.8112,495,3039
1784657095.8139,494,3042
1784657095.8165,500,3066
1784657095.8190,506,3072
1784657095.8215,509,3076
1784657095.8240,506,3055
1784657095.8265,503,3057
1784657095.8294,498,3048
1784657095.8320,498,3046
1784657095.8344,499,3057
1784657095.8365,495,3109
1784657095.8385,500,3104
1784657095.8405,507,3123
1784657095.8428,510,3115
1784657095.8474,511,3110
1784657095.8517,511,3094
1784657095.8544,508,3097
1784657095.8570,508,3086
1784657095.8595,506,3085
1784657095.8623,502,3067
1784657095.8652,501,3061
1784657095.8685,499,3079
1784657095.8714,500,3052
1784657095.8745,499,3048
1784657095.8774,496,3012
1784657095.8801,496,3046
1784657095.8838,498,3050
1784657095.8873,500,3085
1784657095.8908,499,3051
1784657095.8936,498,3056
1784657095.8963,497,3045
1784657095.8988,498,3036
1784657095.9015,494,3024
1784657095.9041,499,3087
1784657095.9067,505,3101
1784657095.9132,502,3102
1784657095.9159,500,3088
1784657095.9185,500,3086
1784657095.9210,501,3065
1784657095.9239,501,3063
1784657095.9272,498,3052
1784657095.9303,498,3044
1784657095.9338,502,3073
1784657095.9372,502,3065
1784657095.9409,500,3056
1784657095.9439,499,3053
1784657095.9466,495,3043
1784657095.9493,500,3110
1784657095.9519,504,3064
1784657095.9584,507,3081
1784657095.9604,510,3101
1784657095.9625,511,3095
1784657095.9646,509,3089
1784657095.9668,509,3085
1784657095.9692,509,3080
1784657095.9718,504,3062
1784657095.9741,506,3072
1784657095.9764,500,3037
1784657095.9789,510,3112
1784657095.9815,511,3126
1784657095.9838,511,3123
1784657095.9860,509,3076
1784657095.9884,512,3103
1784657095.9906,512,3105
1784657095.9930,511,3096
1784657095.9953,513,3086
1784657095.9975,508,3082
1784657095.9998,504,3070
1784657096.0057,503,3064
1784657096.0080,505,3058
1784657096.0102,501,3014
1784657096.0125,501,3031
1784657096.0148,499,3036
1784657096.0174,498,3015
1784657096.0207,498,3051
1784657096.0249,505,3092
1784657096.0288,504,3089
1784657096.0325,507,3085
1784657096.0366,507,3089
1784657096.0410,508,3078
1784657096.0453,508,3084
1784657096.0537,506,3059
1784657096.0560,501,3044
1784657096.0581,502,3044
1784657096.0602,507,3017
1784657096.0624,498,3056
1784657096.0649,502,3069
1784657096.0672,502,3058
1784657096.0696,502,3062
1784657096.0718,499,3051
1784657096.0741,494,3049
1784657096.0764,494,3031
1784657096.0789,500,3076
1784657096.0818,499,3056
1784657096.0845,500,3073
1784657096.0870,501,3062
1784657096.0895,500,3038
1784657096.0920,499,3031
1784657096.0945,498,3033
1784657096.0970,502,3067
1784657096.0995,510,3147
1784657096.1021,519,3166
1784657096.1046,517,3156
1784657096.1071,518,3150
1784657096.1096,521,3143
1784657096.1172,522,3135
1784657096.1197,518,3128
1784657096.1222,519,3116
1784657096.1248,515,3110
1784657096.1272,513,3106
1784657096.1297,510,3098
1784657096.1324,506,3088
1784657096.1346,504,3086
1784657096.1367,507,3079
1784657096.1387,504,3067
1784657096.1407,500,3055
1784657096.1430,525,3221
1784657096.1454,538,3275
1784657096.1479,542,3263
1784657096.1501,543,3250
1784657096.1524,546,3234
1784657096.1547,544,3237
1784657096.1569,544,3227
1784657096.1592,543,3212
1784657096.1618,537,3214
1784657096.1640,539,3205
1784657096.1664,533,3189
1784657096.1686,536,3196
1784657096.1708,531,3145
1784657096.1731,538,3212
1784657096.1808,536,3216
1784657096.1830,534,3201
1784657096.1851,535,3199
1784657096.1872,531,3180
1784657096.1895,528,3167
1784657096.1918,528,3163
1784657096.1942,526,3145
1784657096.1966,527,3151
1784657096.1989,525,3149
1784657096.2012,523,3144
1784657096.2036,520,3164
1784657096.2058,518,3123
1784657096.2082,528,3092
1784657096.2105,522,3101
1784657096.2137,551,3296
1784657096.2163,572,3400
1784657096.2190,590,3490
1784657096.2215,593,3485
1784657096.2238,594,3472
1784657096.2260,595,3459
1784657096.2282,593,3450
1784657096.2304,585,3447
1784657096.2324,586,3442
1784657096.2347,586,3392
1784657096.2369,586,3408
1784657096.2435,584,3398
1784657096.2459,582,3396
1784657096.2484,581,3380
1784657096.2508,579,3370
1784657096.2535,578,3399
1784657096.2559,576,3363
1784657096.2580,575,3344
1784657096.2600,574,3338
1784657096.2630,572,3342
1784657096.2657,568,3346
1784657096.2683,566,3311
1784657096.2709,563,3314
1784657096.2734,559,3297
1784657096.2759,559,3287
1784657096.2784,558,3280
1784657096.2810,558,3258
1784657096.2835,554,3263
1784657096.2911,551,3256
1784657096.2937,551,3247
1784657096.2961,549,3237
1784657096.2986,545,3246
1784657096.3011,544,3232
1784657096.3035,550,3272
1784657096.3059,563,3343
1784657096.3086,564,3375
1784657096.3113,564,3334
1784657096.3142,563,3314
1784657096.3166,561,3291
1784657096.3191,558,3306
1784657096.3216,556,3283
1784657096.3241,555,3281
1784657096.3266,607,3623
1784657096.3291,613,3631
1784657096.3317,612,3619
1784657096.3342,629,3671
1784657096.3367,633,3647
1784657096.3392,632,3644
1784657096.3417,630,3625
1784657096.3442,631,3614
1784657096.3467,630,3602
1784657096.3549,630,3583
1784657096.3574,629,3574
1784657096.3599,626,3559
1784657096.3625,626,3552
1784657096.3650,622,3540
1784657096.3675,617,3535
1784657096.3702,613,3520
1784657096.3727,613,3471
1784657096.3752,610,3503
1784657096.3778,610,3480
1784657096.3809,609,3482
1784657096.3834,607,3473
1784657096.3858,603,3460
1784657096.3884,600,3451
1784657096.3909,598,3440
1784657096.3934,595,3431
1784657096.3960,594,3405
1784657096.3985,593,3411
1784657096.4009,592,3407
1784657096.4035,590,3391
1784657096.4060,587,3404
1784657096.4085,583,3393
1784657096.4109,581,3368
1784657096.4192,578,3332
1784657096.4217,577,3351
1784657096.4242,576,3341
1784657096.4267,572,3332
1784657096.4292,568,3325
1784657096.4317,568,3313
1784657096.4344,558,3307
1784657096.4370,559,3293
1784657096.4395,555,3291
1784657096.4420,559,3280
1784657096.4450,598,3540
1784657096.4480,604,3537
1784657096.4506,610,3518
1784657096.4531,610,3498
1784657096.4556,608,3504
1784657096.4582,605,3491
1784657096.4609,602,3486
1784657096.4635,600,3475
1784657096.4661,602,3453
1784657096.4686,598,3464
1784657096.4711,596,3431
1784657096.4737,595,3428
1784657096.4828,593,3416
1784657096.4854,595,3408
1784657096.4879,586,3395
1784657096.4906,584,3395
1784657096.4931,581,3378
1784657096.4956,579,3374
1784657096.4982,579,3350
1784657096.5010,576,3375
1784657096.5035,574,3353
1784657096.5060,572,3336
1784657096.5085,567,3323
1784657096.5111,565,3323
1784657096.5140,562,3329
1784657096.5165,559,3302
1784657096.5190,562,3293
1784657096.5214,560,3289
1784657096.5240,559,3281
1784657096.5269,559,3273
1784657096.5294,555,3258
1784657096.5320,552,3261
1784657096.5346,553,3247
1784657096.5371,550,3240
1784657096.5461,547,3232
1784657096.5484,541,3229
1784657096.5509,543,3210
1784657096.5534,542,3213
1784657096.5559,539,3203
1784657096.5584,537,3188
1784657096.5609,532,3190
1784657096.5636,530,3206
1784657096.5661,534,3178
1784657096.5684,530,3166
1784657096.5709,529,3159
1784657096.5734,533,3217
1784657096.5758,544,3254
1784657096.5785,543,3253
1784657096.5814,542,3248
1784657096.5838,542,3237
1784657096.5863,544,3231
1784657096.5886,542,3218
1784657096.5907,567,3382
1784657096.5930,573,3400
1784657096.5954,571,3362
1784657096.5975,569,3359
1784657096.5996,572,3344
1784657096.6076,571,3338
1784657096.6099,571,3339
1784657096.6123,567,3333
1784657096.6148,564,3301
1784657096.6172,564,3308
1784657096.6196,562,3295
1784657096.6221,559,3285
1784657096.6247,557,3277
1784657096.6275,556,3266
1784657096.6305,551,3276
1784657096.6330,552,3254
1784657096.6354,550,3247
1784657096.6378,548,3276
1784657096.6401,549,3231
1784657096.6425,544,3225
1784657096.6449,543,3217
1784657096.6475,543,3209
1784657096.6498,540,3207
1784657096.6520,540,3195
1784657096.6541,536,3186
1784657096.6563,533,3185
1784657096.6586,532,3172
1784657096.6608,530,3157
1784657096.6630,525,3164
1784657096.6721,523,3158
1784657096.6747,523,3146
1784657096.6773,522,3139
1784657096.6799,522,3134
1784657096.6824,519,3120
1784657096.6849,517,3115
1784657096.6874,515,3109
1784657096.6901,513,3099
1784657096.6927,512,3101
1784657096.6955,510,3075
1784657096.6985,509,3085
1784657096.7010,501,3078
1784657096.7035,507,3098
1784657096.7060,510,3078
1784657096.7085,509,3076
1784657096.7110,508,3063
1784657096.7135,506,3101
1784657096.7160,513,3127
1784657096.7185,512,3154
1784657096.7210,514,3117
1784657096.7235,513,3147
1784657096.7259,509,3128
1784657096.7326,511,3093
1784657096.7351,510,3083
1784657096.7379,511,3136
1784657096.7405,519,3174
1784657096.7431,516,3161
1784657096.7459,520,3161
1784657096.7485,520,3144
1784657096.7510,519,3139
1784657096.7535,520,3131
1784657096.7559,516,3131
1784657096.7585,529,3216
1784657096.7611,531,3216
1784657096.7639,532,3212
1784657096.7664,530,3200
1784657096.7689,532,3181
1784657096.7715,542,3189
1784657096.7742,533,3181
1784657096.7767,532,3174
1784657096.7793,527,3166
1784657096.7819,524,3156
1784657096.7845,524,3136
1784657096.7870,525,3147
1784657096.7935,519,3140
1784657096.7962,520,3123
1784657096.7989,519,3120
1784657096.8017,519,3131
1784657096.8042,515,3137
1784657096.8067,513,3104
1784657096.8092,511,3123
1784657096.8120,511,3091
1784657096.8145,510,3061
1784657096.8170,506,3077
1784657096.8195,505,3068
1784657096.8223,506,3056
1784657096.8250,502,3055
1784657096.8278,500,3044
1784657096.8306,506,3082
1784657096.8333,499,3053
1784657096.8359,500,3062
1784657096.8385,500,3046
1784657096.8410,500,3043
1784657096.8436,498,3040
1784657096.8461,495,3027
1784657096.8486,495,2964
1784657096.8511,508,3055
1784657096.8602,500,3043
1784657096.8627,499,3043
1784657096.8652,498,3027
1784657096.8677,499,3034
1784657096.8704,498,3026
1784657096.8729,496,3025
1784657096.8755,497,3035
1784657096.8780,503,3048
1784657096.8805,501,3044
1784657096.8831,497,3038
1784657096.8857,498,3026
1784657096.8883,498,3038
1784657096.8909,496,3033
1784657096.8935,495,3024
1784657096.8965,492,3019
1784657096.8989,480,3022
1784657096.9013,489,3052
1784657096.9036,489,3037
1784657096.9060,493,3024
1784657096.9083,492,3035
1784657096.9106,497,3021
1784657096.9131,494,3056
1784657096.9220,495,3033
1784657096.9246,492,3031
1784657096.9271,490,3019
1784657096.9297,494,3044
1784657096.9322,496,3059
1784657096.9347,501,3080
1784657096.9370,506,3071
1784657096.9392,502,3069
1784657096.9415,501,3064
1784657096.9438,505,3051
1784657096.9467,502,3051
1784657096.9489,497,3051
1784657096.9512,496,3037
1784657096.9535,495,3026
1784657096.9558,492,3091
1784657096.9580,491,3021
1784657096.9604,489,3045
1784657096.9627,488,3006
1784657096.9650,490,3022
1784657096.9674,491,3030
1784657096.9697,490,3008
1784657096.9719,488,3021
1784657096.9744,497,3063
1784657096.9767,496,3041
1784657096.9832,496,3042
1784657096.9857,504,3088
1784657096.9882,511,3105
1784657096.9907,509,3074
1784657096.9935,504,3066
1784657096.9962,504,3057
1784657096.9986,500,3048
1784657097.0008,498,3045
1784657097.0030,498,3029
1784657097.0052,497,3029
1784657097.0076,495,3027
1784657097.0101,494,3027
1784657097.0125,493,3024
1784657097.0147,490,3018
1784657097.0170,495,3052
1784657097.0194,498,3043
1784657097.0218,497,3037
1784657097.0240,494,2991
1784657097.0316,494,3016
1784657097.0341,492,3031
1784657097.0366,496,3054
1784657097.0391,496,3048
1784657097.0417,497,3044
1784657097.0445,497,3035
1784657097.0473,495,3026
1784657097.0500,493,3021
1784657097.0528,492,3017
1784657097.0554,492,3023
1784657097.0578,495,3048
1784657097.0603,498,3054
1784657097.0624,496,3052
1784657097.0644,495,3035
1784657097.0664,495,3021
1784657097.0686,494,3025
1784657097.0709,494,3022
1784657097.0732,493,3005
1784657097.0755,494,3036
1784657097.0778,492,3029
1784657097.0801,495,3051
1784657097.0824,498,3055
1784657097.0847,499,3054
1784657097.0871,497,3057
1784657097.0946,497,3035
1784657097.0971,495,3044
1784657097.0997,494,3021
1784657097.1022,497,3044
1784657097.1051,495,3036
1784657097.1076,484,3038
1784657097.1101,490,3047
1784657097.1132,491,3026
1784657097.1158,495,3022
1784657097.1184,489,3022
1784657097.1209,492,3032
1784657097.1234,504,3116
1784657097.1258,502,3096
1784657097.1282,507,3097
1784657097.1306,509,3101
1784657097.1330,509,3042
1784657097.1355,507,3090
1784657097.1378,503,3080
1784657097.1401,501,3053
1784657097.1425,499,3049
1784657097.1448,501,3075
1784657097.1470,497,3048
1784657097.1492,497,3043
1784657097.1552,495,3054
1784657097.1575,496,3035
1784657097.1599,493,3022
1784657097.1621,493,3007
1784657097.1646,495,3078
1784657097.1669,493,3053
1784657097.1691,491,3038
1784657097.1715,495,3054
1784657097.1737,496,3062
1784657097.1759,493,3038
1784657097.1785,493,3029
1784657097.1811,493,3021
1784657097.1834,492,3023
1784657097.1857,493,3055
1784657097.1879,498,3076
1784657097.1901,497,3075
1784657097.1924,499,3068
1784657097.1946,507,3067
1784657097.1968,499,3054
1784657097.2028,499,3046
1784657097.2051,498,3041
1784657097.2074,495,3029
1784657097.2097,496,3047
1784657097.2120,493,3040
1784657097.2144,493,3034
1784657097.2166,499,3024
1784657097.2188,496,3016
1784657097.2210,494,3009
1784657097.2241,496,3005
1784657097.2276,500,3077
1784657097.2309,504,3092
1784657097.2348,502,3089
1784657097.2388,505,3101
1784657097.2429,510,3116
1784657097.2493,511,3133
1784657097.2515,512,3077
1784657097.2536,511,3097
1784657097.2556,510,3092
1784657097.2578,505,3084
1784657097.2603,505,3063
1784657097.2626,502,3063
1784657097.2649,502,3046
1784657097.2671,503,3052
1784657097.2695,499,3039
1784657097.2717,499,3043
1784657097.2739,497,3037
1784657097.2762,493,3018
1784657097.2790,495,3040
1784657097.2812,495,3044
1784657097.2835,495,3041
1784657097.2857,494,3037
1784657097.2879,494,3031
1784657097.2902,493,3020
1784657097.2964,491,3033
1784657097.2991,495,3041
1784657097.3018,502,3093
1784657097.3044,501,3079
1784657097.3072,501,3067
1784657097.3101,502,3060
1784657097.3132,503,3057
1784657097.3168,500,3047
1784657097.3200,499,3041
1784657097.3234,496,3034
1784657097.3260,499,3059
1784657097.3288,497,3062
1784657097.3314,497,3046
1784657097.3341,497,3043
1784657097.3367,496,3032
1784657097.3431,496,3042
1784657097.3453,497,3043
1784657097.3474,495,3033
1784657097.3493,497,3058
1784657097.3514,492,3051
1784657097.3539,495,3057
1784657097.3561,495,3046
1784657097.3584,494,3049
1784657097.3610,493,3041
1784657097.3635,497,3057
1784657097.3657,496,3053
1784657097.3680,496,3044
1784657097.3703,497,3064
1784657097.3726,497,3059
1784657097.3748,499,3081
1784657097.3770,500,3060
1784657097.3794,499,3062
1784657097.3816,498,3047
1784657097.3838,497,3042
1784657097.3883,495,3039
1784657097.3925,493,3023
1784657097.3953,492,3027
1784657097.3979,493,3019
1784657097.4005,491,3010
1784657097.4032,491,3008
1784657097.4062,488,3001
1784657097.4094,494,3029
1784657097.4119,495,3041
1784657097.4154,495,3055
1784657097.4187,495,3054
1784657097.4223,496,3044
1784657097.4250,495,3038
1784657097.4276,494,3035
1784657097.4302,493,3029
1784657097.4327,494,3022
1784657097.4388,491,3010
1784657097.4409,509,3136
1784657097.4431,503,3118
1784657097.4451,511,3107
1784657097.4473,511,3095
1784657097.4497,510,3072
1784657097.4520,507,3081
1784657097.4543,507,3104
1784657097.4566,507,3058
1784657097.4588,500,3053
1784657097.4615,498,3052
1784657097.4641,499,3050
1784657097.4666,505,3077
1784657097.4689,506,3084
1784657097.4712,505,3077
1784657097.4734,507,3075
1784657097.4758,502,3062
1784657097.4780,500,3044
1784657097.4814,502,3061
1784657097.4863,497,3039
1784657097.4886,493,3039
1784657097.4909,495,3046
1784657097.4931,491,3055
1784657097.4956,493,3037
1784657097.4980,491,3028
1784657097.5003,490,3021
1784657097.5025,489,3047
1784657097.5047,492,3031
1784657097.5070,493,3024
1784657097.5093,495,3033
1784657097.5123,494,3044
1784657097.5148,492,3023
1784657097.5171,491,3020
1784657097.5194,490,3000
1784657097.5217,486,3005
1784657097.5240,490,3029
1784657097.5264,493,3036
1784657097.5327,492,3043
1784657097.5355,496,3046
1784657097.5383,497,3029
1784657097.5408,494,3029
1784657097.5436,493,3008
1784657097.5468,491,3017
1784657097.5498,493,3020
1784657097.5530,495,3053
1784657097.5558,497,3058
1784657097.5585,498,3056
1784657097.5614,498,3052
1784657097.5651,500,3042
1784657097.5684,498,3031
1784657097.5721,498,3038
1784657097.5791,509,3100
1784657097.5818,508,3098
1784657097.5845,506,3096
1784657097.5871,502,3090
1784657097.5897,503,3079
1784657097.5924,502,3054
1784657097.5955,501,3059
1784657097.5987,500,3029
1784657097.6020,499,3044
1784657097.6058,496,3040
1784657097.6085,494,3029
1784657097.6111,496,3026
1784657097.6137,501,3082
1784657097.6164,502,3072
1784657097.6190,508,3095
1784657097.6216,508,3087
1784657097.6273,506,3079
1784657097.6294,503,3077
1784657097.6314,500,3065
1784657097.6335,497,3057
1784657097.6358,499,3051
1784657097.6384,498,3044
1784657097.6407,497,3030
1784657097.6431,496,3028
1784657097.6459,494,3024
1784657097.6484,496,3033
1784657097.6516,495,3050
1784657097.6542,495,3050
1784657097.6563,491,3038
1784657097.6583,489,3024
1784657097.6605,493,3027
1784657097.6626,481,3020
1784657097.6647,482,3011
1784657097.6669,481,3007
1784657097.6704,486,3030
1784657097.6758,488,3026
1784657097.6783,492,3048
1784657097.6807,493,3038
1784657097.6830,496,3045
1784657097.6856,494,3033
1784657097.6882,496,3021
1784657097.6907,490,3019
1784657097.6931,502,3012
1784657097.6959,495,3037
1784657097.6983,496,3001
1784657097.7007,502,3070
1784657097.7030,505,3084
1784657097.7054,504,3073
1784657097.7074,501,3081
1784657097.7095,500,3056
1784657097.7115,496,3043
1784657097.7136,503,3091
1784657097.7157,507,3085
1784657097.7224,508,3122
1784657097.7249,510,3107
1784657097.7274,510,3106
1784657097.7298,507,3097
1784657097.7322,511,3057
1784657097.7347,510,3081
1784657097.7372,505,3073
1784657097.7397,501,3039
1784657097.7422,499,3054
1784657097.7450,498,3047
1784657097.7474,498,3042
1784657097.7498,494,3038
1784657097.7519,496,3029
1784657097.7542,499,3059
1784657097.7565,499,3085
1784657097.7586,499,3060
1784657097.7607,500,3063
1784657097.7630,499,3046
1784657097.7661,501,3047
1784657097.7691,497,3040
1784657097.7718,496,3040
1784657097.7743,493,3047
1784657097.7767,492,3018
1784657097.7792,495,3043
1784657097.7872,493,3035
1784657097.7897,490,3024
1784657097.7921,493,3019
1784657097.7946,493,3039
1784657097.7974,493,3024
1784657097.7997,492,3045
1784657097.8019,493,3035
1784657097.8044,495,3028
1784657097.8071,495,3052
1784657097.8101,495,3040
1784657097.8128,494,3040
1784657097.8155,494,3026
1784657097.8177,495,3022
1784657097.8201,493,3020
1784657097.8224,491,3010
1784657097.8246,493,3052
1784657097.8269,497,3049
1784657097.8295,495,3051
1784657097.8318,494,3043
1784657097.8341,494,3040
1784657097.8364,499,3071
1784657097.8386,503,3083
1784657097.8408,501,3080
1784657097.8503,499,3057
1784657097.8530,499,3071
1784657097.8558,502,3062
1784657097.8587,500,3058
1784657097.8614,500,3058
1784657097.8640,499,3063
1784657097.8664,498,3045
1784657097.8687,497,3042
1784657097.8710,494,3024
1784657097.8732,498,3065
1784657097.8755,499,3065
1784657097.8788,500,3036
1784657097.8811,505,3063
1784657097.8834,501,3058
1784657097.8857,499,3051
1784657097.8879,513,3045
1784657097.8902,509,3035
1784657097.8925,502,3034
1784657097.8948,502,3043
1784657097.8970,499,3042
1784657097.8992,501,3053
1784657097.9015,497,3042
1784657097.9037,497,3030
1784657097.9096,495,3028
1784657097.9121,498,3023
1784657097.9144,497,3033
1784657097.9167,495,3037
1784657097.9189,494,3024
1784657097.9212,498,3039
1784657097.9249,495,3025
1784657097.9275,494,3031
1784657097.9308,494,3024
1784657097.9345,494,3022
1784657097.9380,489,3017
1784657097.9408,488,3004
1784657097.9434,490,3021
1784657097.9459,493,3044
1784657097.9486,498,3078
1784657097.9511,501,3051
1784657097.9575,502,3057
1784657097.9604,500,3043
1784657097.9631,497,3035
1784657097.9657,509,3096
1784657097.9683,512,3107
1784657097.9712,512,3067
1784657097.9741,511,3106
1784657097.9775,512,3094
1784657097.9809,511,3082
1784657097.9844,510,3071
1784657097.9871,508,3078
1784657097.9900,506,3068
1784657097.9925,500,3049
1784657097.9950,496,3047
1784657097.9978,497,3048
1784657098.0005,498,3051
1784657098.0061,499,3043
1784657098.0081,498,3038
1784657098.0105,497,3032
1784657098.0127,499,3059
1784657098.0157,497,3049
1784657098.0180,495,3041
1784657098.0217,496,3044
1784657098.0259,494,3024
1784657098.0289,494,3027
1784657098.0329,494,3022
1784657098.0355,491,3008
1784657098.0394,493,3029
1784657098.0435,494,3045
1784657098.0471,496,3058
1784657098.0541,496,3059
1784657098.0563,499,3083
1784657098.0582,499,3112
1784657098.0602,500,3069
1784657098.0622,498,3056
1784657098.0644,499,3056
1784657098.0666,498,3043
1784657098.0686,495,3052
1784657098.0708,495,3046
1784657098.0729,492,3035
1784657098.0750,491,3029
1784657098.0775,491,3035
1784657098.0804,491,3021
1784657098.0831,492,2992
1784657098.0871,494,3037
1784657098.0911,494,3073
1784657098.0953,496,3065
1784657098.1012,489,3054
1784657098.1038,495,3046
1784657098.1062,496,3036
1784657098.1087,497,3035
1784657098.1112,493,3032
1784657098.1140,494,3018
1784657098.1171,499,3038
1784657098.1200,498,3049
1784657098.1227,498,3045
1784657098.1252,497,3040
1784657098.1278,494,3024
1784657098.1306,495,3027
1784657098.1335,493,3021
1784657098.1363,492,3010
1784657098.1390,490,3030
1784657098.1417,499,3081
1784657098.1478,510,3106
1784657098.1497,510,3099
1784657098.1517,509,3102
1784657098.1538,510,3094
1784657098.1560,510,3088
1784657098.1581,509,3077
1784657098.1607,504,3073
1784657098.1630,502,3067
1784657098.1651,502,3065
1784657098.1673,498,3050
1784657098.1694,498,3039
1784657098.1715,498,3035
1784657098.1736,499,3029
1784657098.1758,495,3024
1784657098.1780,493,3007
1784657098.1800,493,3017
1784657098.1822,495,3046
1784657098.1845,501,3096
1784657098.1868,510,3115
1784657098.1891,510,3105
1784657098.1958,509,3096
1784657098.1987,509,3087
1784657098.2014,509,3082
1784657098.2040,505,3067
1784657098.2068,499,3070
1784657098.2099,499,3059
1784657098.2130,498,3050
1784657098.2160,496,3039
1784657098.2197,497,3030
1784657098.2229,502,3085
1784657098.2262,503,3068
1784657098.2290,500,3047
1784657098.2318,500,3067
1784657098.2344,499,3052
1784657098.2370,499,3061
1784657098.2397,497,3058
1784657098.2422,497,3046
1784657098.2447,497,3044
1784657098.2472,497,3054
1784657098.2499,497,3016
1784657098.2527,493,3020
1784657098.2588,492,3019
1784657098.2616,495,3047
1784657098.2642,497,3052
1784657098.2667,496,3036
1784657098.2697,494,3037
1784657098.2729,494,3029
1784657098.2760,494,3027
1784657098.2792,492,3027
1784657098.2832,494,3016
1784657098.2861,493,3039
1784657098.2900,497,3055
1784657098.2945,498,3050
1784657098.2988,498,3046
1784657098.3050,495,3041
1784657098.3074,493,3030
1784657098.3095,491,3019
1784657098.3115,492,3042
1784657098.3135,498,3069
1784657098.3159,503,3071
1784657098.3184,499,3060
1784657098.3207,506,3058
1784657098.3229,501,3050
1784657098.3252,504,3060
1784657098.3279,499,3037
1784657098.3302,495,3034
1784657098.3328,498,3055
1784657098.3350,499,3065
1784657098.3372,507,3094
1784657098.3395,506,3103
1784657098.3417,505,3073
1784657098.3439,506,3063
1784657098.3462,504,3059
1784657098.3524,497,3053
1784657098.3551,496,3036
1784657098.3580,495,3042
1784657098.3605,495,3043
1784657098.3633,499,3033
1784657098.3664,496,3044
1784657098.3697,497,3036
1784657098.3729,497,3030
1784657098.3757,491,3018
1784657098.3788,494,3027
1784657098.3820,497,3077
1784657098.3856,504,3108
1784657098.3892,501,3105
1784657098.3918,505,3102
1784657098.3945,510,3092
1784657098.4009,505,3084
1784657098.4037,506,3084
1784657098.4063,506,3059
1784657098.4089,501,3060
1784657098.4116,500,3083
1784657098.4149,496,3066
1784657098.4181,498,3038
1784657098.4214,494,3032
1784657098.4242,494,3021
1784657098.4270,492,3018
1784657098.4296,491,2968
1784657098.4321,493,3032
1784657098.4350,490,3020
1784657098.4376,493,3058
1784657098.4404,497,3005
1784657098.4449,495,3038
1784657098.4485,495,3046
1784657098.4506,496,3055
1784657098.4526,497,3055
1784657098.4547,497,3070
1784657098.4569,498,3064
1784657098.4595,498,3057
1784657098.4620,498,3049
1784657098.4644,500,3052
1784657098.4666,499,3036
1784657098.4689,499,3044
1784657098.4711,496,3033
1784657098.4734,494,3027
1784657098.4758,494,3042
1784657098.4780,494,3048
1784657098.4803,495,3041
1784657098.4825,494,3030
1784657098.4848,494,3025
1784657098.4871,493,3023
1784657098.4914,493,3013
1784657098.4974,495,3028
1784657098.5000,494,3026
1784657098.5025,491,3017
1784657098.5049,489,3013
1784657098.5075,492,3034
1784657098.5103,498,3057
1784657098.5132,502,3094
1784657098.5159,494,3053
1784657098.5188,498,3069
1784657098.5218,496,3053
1784657098.5245,493,3057
1784657098.5272,493,3051
1784657098.5297,492,3041
1784657098.5322,492,3050
1784657098.5347,490,3028
1784657098.5372,490,3019
1784657098.5397,489,3023
1784657098.5422,483,3012
1784657098.5447,483,3004
1784657098.5472,488,3026
1784657098.5497,490,3029
1784657098.5523,491,3029
1784657098.5580,492,3025
1784657098.5599,494,3023
1784657098.5620,493,3029
1784657098.5640,490,3052
1784657098.5661,496,3076
1784657098.5684,497,3073
1784657098.5706,497,3063
1784657098.5727,498,3053
1784657098.5748,497,3053
1784657098.5771,499,3037
1784657098.5794,495,3036
1784657098.5815,493,3022
1784657098.5836,490,3024
1784657098.5858,487,3036
1784657098.5879,491,3020
1784657098.5900,489,3051
1784657098.5922,493,3032
1784657098.5943,491,3026
1784657098.5965,491,3022
1784657098.5987,492,3049
1784657098.6046,497,3073
1784657098.6069,500,3089
1784657098.6092,500,3082
1784657098.6115,502,3069
1784657098.6139,504,3067
1784657098.6166,500,3060
1784657098.6189,499,3056
1784657098.6211,498,3036
1784657098.6234,496,3050
1784657098.6260,496,3048
1784657098.6284,493,3055
1784657098.6307,494,3012
1784657098.6330,494,3039
1784657098.6352,495,3017
1784657098.6375,492,3018
1784657098.6397,491,3011
1784657098.6419,497,3045
1784657098.6441,498,3055
1784657098.6464,494,3041
1784657098.6528,498,3060
1784657098.6550,497,3066
1784657098.6572,500,3058
1784657098.6592,501,3070
1784657098.6615,499,3070
1784657098.6639,496,3044
1784657098.6662,494,3024
1784657098.6685,491,3025
1784657098.6707,484,2996
1784657098.6729,492,3032
1784657098.6754,497,3043
1784657098.6785,495,3044
1784657098.6808,494,3042
1784657098.6831,496,3029
1784657098.6854,491,3025
1784657098.6877,490,3017
1784657098.6899,491,3005
1784657098.6922,500,3072
1784657098.6984,501,3074
1784657098.7011,504,3065
1784657098.7039,501,3047
1784657098.7065,499,3055
1784657098.7090,508,3108
1784657098.7122,517,3161
1784657098.7151,515,3140
1784657098.7181,516,3136
1784657098.7218,516,3117
1784657098.7246,516,3122
1784657098.7277,513,3120
1784657098.7312,513,3107
1784657098.7348,511,3100
1784657098.7381,511,3091
1784657098.7411,507,3082
1784657098.7468,505,3075
1784657098.7488,502,3057
1784657098.7509,512,3139
1784657098.7531,532,3252
1784657098.7552,530,3260
1784657098.7577,537,3253
1784657098.7602,533,3250
1784657098.7627,538,3234
1784657098.7650,535,3230
1784657098.7673,539,3218
1784657098.7695,537,3218
1784657098.7718,535,3200
1784657098.7740,535,3199
1784657098.7764,538,3187
1784657098.7786,532,3174
1784657098.7809,530,3178
1784657098.7831,528,3163
1784657098.7854,526,3155
1784657098.7877,525,3152
1784657098.7936,524,3146
1784657098.7959,524,3148
1784657098.7983,526,3157
1784657098.8006,541,3267
1784657098.8030,546,3282
1784657098.8057,546,3271
1784657098.8079,545,3263
1784657098.8107,546,3253
1784657098.8130,544,3239
1784657098.8153,545,3238
1784657098.8175,544,3232
1784657098.8197,549,3266
1784657098.8220,566,3375
1784657098.8242,567,3362
1784657098.8266,568,3354
1784657098.8288,566,3350
1784657098.8311,567,3339
1784657098.8334,569,3317
1784657098.8423,564,3316
1784657098.8447,565,3307
1784657098.8468,563,3298
1784657098.8488,559,3291
1784657098.8508,559,3284
1784657098.8531,555,3279
1784657098.8551,553,3269
1784657098.8572,553,3265
1784657098.8594,548,3257
1784657098.8618,547,3246
1784657098.8641,546,3259
1784657098.8665,543,3223
1784657098.8687,539,3226
1784657098.8710,540,3217
1784657098.8733,538,3203
1784657098.8757,535,3198
1784657098.8786,535,3193
1784657098.8809,533,3193
1784657098.8831,530,3181
1784657098.8855,556,3365
1784657098.8877,585,3494
1784657098.8899,585,3478
1784657098.8922,591,3467
1784657098.8946,593,3466
1784657098.8968,593,3431
1784657098.9031,592,3441
1784657098.9059,593,3430
1784657098.9085,589,3433
1784657098.9110,588,3414
1784657098.9138,586,3403
1784657098.9168,582,3394
1784657098.9197,581,3381
1784657098.9231,580,3398
1784657098.9261,577,3383
1784657098.9294,582,3393
1784657098.9330,587,3437
1784657098.9364,627,3744
1784657098.9394,630,3702
1784657098.9421,631,3683
1784657098.9448,633,3663
1784657098.9505,634,3649
1784657098.9525,634,3635
1784657098.9547,633,3629
1784657098.9567,632,3598
1784657098.9591,629,3590
1784657098.9615,627,3626
1784657098.9638,625,3574
1784657098.9660,624,3602
1784657098.9684,621,3548
1784657098.9706,620,3531
1784657098.9729,617,3530
1784657098.9752,615,3509
1784657098.9781,612,3505
1784657098.9804,610,3500
1784657098.9827,610,3487
1784657098.9850,607,3479
1784657098.9873,606,3468
1784657098.9895,603,3472
1784657098.9918,599,3449
1784657098.9988,597,3435
1784657099.0009,595,3428
1784657099.0030,593,3418
1784657099.0050,588,3411
1784657099.0071,587,3405
1784657099.0095,584,3392
1784657099.0116,582,3383
1784657099.0138,625,3661
1784657099.0158,635,3720
1784657099.0180,640,3709
1784657099.0201,642,3692
1784657099.0222,642,3678
1784657099.0243,641,3663
1784657099.0267,638,3654
1784657099.0289,639,3636
1784657099.0310,636,3637
1784657099.0331,635,3616
1784657099.0353,638,3677
1784657099.0374,645,3711
1784657099.0397,644,3688
1784657099.0464,643,3758
1784657099.0485,639,3662
1784657099.0505,639,3639
1784657099.0525,638,3647
1784657099.0545,636,3630
1784657099.0568,635,3613
1784657099.0590,626,3605
1784657099.0615,629,3600
1784657099.0636,627,3574
1784657099.0658,626,3570
1784657099.0678,622,3555
1784657099.0700,621,3545
1784657099.0722,619,3532
1784657099.0743,613,3516
1784657099.0764,611,3512
1784657099.0786,610,3490
1784657099.0806,609,3495
1784657099.0828,605,3483
1784657099.0849,597,3487
1784657099.0872,602,3464
1784657099.0893,597,3464
1784657099.0916,595,3443
1784657099.0936,594,3436
1784657099.0958,591,3421
1784657099.0979,589,3418
1784657099.1002,588,3414
1784657099.1037,584,3398
1784657099.1092,583,3386
1784657099.1121,580,3385
1784657099.1147,578,3376
1784657099.1173,577,3361
1784657099.1204,576,3352
1784657099.1235,573,3353
1784657099.1264,574,3338
1784657099.1298,572,3348
1784657099.1333,567,3321
1784657099.1368,568,3309
1784657099.1398,563,3307
1784657099.1427,562,3297
1784657099.1452,572,3375
1784657099.1477,580,3415
1784657099.1526,581,3403
1784657099.1560,580,3406
1784657099.1582,579,3387
1784657099.1602,579,3382
1784657099.1623,578,3368
1784657099.1647,577,3355
1784657099.1670,580,3348
1784657099.1694,576,3344
1784657099.1717,574,3334
1784657099.1739,569,3328
1784657099.1765,561,3328
1784657099.1789,562,3313
1784657099.1812,560,3307
1784657099.1837,561,3291
1784657099.1859,559,3282
1784657099.1884,557,3279
1784657099.1906,554,3271
1784657099.1929,553,3259
1784657099.1952,550,3248
1784657099.2019,549,3243
1784657099.2048,548,3240
1784657099.2077,546,3235
1784657099.2102,545,3221
1784657099.2128,543,3214
1784657099.2160,542,3227
1784657099.2189,540,3160
1784657099.2220,539,3199
1784657099.2251,533,3189
1784657099.2283,532,3181
1784657099.2313,532,3174
1784657099.2344,529,3166
1784657099.2377,531,3163
1784657099.2406,527,3157
1784657099.2432,526,3135
1784657099.2494,522,3140
1784657099.2514,520,3144
1784657099.2535,519,3121
1784657099.2557,518,3119
1784657099.2581,517,3128
1784657099.2606,515,3104
1784657099.2629,513,3076
1784657099.2651,501,3091
1784657099.2674,503,3086
1784657099.2697,500,3074
1784657099.2719,502,3068
1784657099.2741,505,3087
1784657099.2772,507,3092
1784657099.2795,501,3078
1784657099.2817,506,3066
1784657099.2839,499,3060
1784657099.2861,500,3066
1784657099.2885,498,3042
1784657099.2906,507,3077
1784657099.2973,506,3081
1784657099.3000,507,3075
1784657099.3028,502,3065
1784657099.3054,506,3068
1784657099.3081,500,3055
1784657099.3111,500,3048
1784657099.3141,496,3041
1784657099.3173,493,3037
1784657099.3202,496,3034
1784657099.3229,495,3030
1784657099.3258,494,3023
1784657099.3291,492,3017
1784657099.3329,494,3033
1784657099.3369,498,3051
1784657099.3437,494,3041
1784657099.3457,494,3032
1784657099.3477,493,3034
1784657099.3499,492,3020
1784657099.3521,494,3035
1784657099.3548,498,3048
1784657099.3570,497,3045
1784657099.3597,495,3036
1784657099.3621,493,3039
1784657099.3644,497,3047
1784657099.3667,492,3042
1784657099.3690,496,3049
1784657099.3719,494,3034
1784657099.3747,493,3032
1784657099.3772,496,3025
1784657099.3797,493,3022
1784657099.3824,491,3027
1784657099.3849,491,3019
1784657099.3907,491,3035
1784657099.3932,496,3047
1784657099.3957,495,3041
1784657099.3979,496,3030
1784657099.3999,496,3024
1784657099.4033,492,3021
1784657099.4071,497,3035
1784657099.4094,497,3050
1784657099.4129,495,3053
1784657099.4169,496,3039
1784657099.4204,488,2999
1784657099.4232,492,3037
1784657099.4258,492,3027
1784657099.4284,492,3027
1784657099.4309,491,3030
1784657099.4355,492,3039
1784657099.4391,490,3031
1784657099.4412,489,3024
1784657099.4433,498,3056
1784657099.4454,496,3050
1784657099.4477,496,3043
1784657099.4500,496,3034
1784657099.4524,495,3025
1784657099.4547,493,3024
1784657099.4569,493,3015
1784657099.4598,496,3056
1784657099.4622,494,3079
1784657099.4645,501,3043
1784657099.4670,505,3025
1784657099.4694,499,3026
1784657099.4717,497,3017
1784657099.4739,499,3048
1784657099.4761,499,3075
1784657099.4784,498,3027
1784657099.4806,498,3044
1784657099.4866,496,3032
1784657099.4889,495,3018
1784657099.4910,493,3016
1784657099.4932,494,3016
1784657099.4957,488,3010
1784657099.4980,495,3045
1784657099.5004,497,3064
1784657099.5026,494,3066
1784657099.5048,495,3062
1784657099.5071,496,3052
1784657099.5100,498,3049
1784657099.5125,499,3039
1784657099.5147,500,3050
1784657099.5170,501,3066
1784657099.5193,505,3084
1784657099.5215,506,3095
1784657099.5237,508,3106
1784657099.5259,510,3096
1784657099.5281,506,3082
1784657099.5340,502,3079
1784657099.5364,505,3069
1784657099.5387,501,3065
1784657099.5410,499,3079
1784657099.5434,499,3046
1784657099.5457,500,3043
1784657099.5480,509,3079
1784657099.5503,508,3073
1784657099.5524,503,3061
1784657099.5547,504,3050
1784657099.5569,502,3044
1784657099.5596,500,3039
1784657099.5623,497,3035
1784657099.5645,497,3040
1784657099.5667,497,3030
1784657099.5689,498,3051
1784657099.5712,494,3024
1784657099.5735,493,3020
1784657099.5798,493,3005
1784657099.5826,492,3026
1784657099.5855,490,3024
1784657099.5880,490,3017
1784657099.5905,484,3012
1784657099.5937,483,3002
1784657099.5967,484,2984
1784657099.5999,493,3043
1784657099.6035,497,3062
1784657099.6064,499,3067
1784657099.6091,498,3076
1784657099.6123,499,3077
1784657099.6160,499,3052
1784657099.6194,499,3050
1784657099.6227,498,3043
1784657099.6290,498,3041
1784657099.6318,497,3036
1784657099.6345,497,3038
1784657099.6371,493,3025
1784657099.6398,492,3021
1784657099.6427,489,3015
1784657099.6457,491,3019
1784657099.6491,494,3027
1784657099.6528,496,3032
1784657099.6561,496,3037
1784657099.6588,497,3055
1784657099.6615,499,3077
1784657099.6640,498,3050
1784657099.6665,496,3054
1784657099.6690,497,3049
1784657099.6716,497,3041
1784657099.6744,496,3015
1784657099.6777,496,3049
1784657099.6811,493,3017
1784657099.6836,491,3013
1784657099.6899,495,3041
1784657099.6927,495,3040
1784657099.6953,494,3037
1784657099.6979,494,3032
1784657099.7004,494,3023
1784657099.7034,494,3029
1784657099.7063,498,3054
1784657099.7094,499,3078
1784657099.7127,500,3064
1784657099.7161,499,3062
1784657099.7190,497,3054
1784657099.7229,503,3065
1784657099.7259,501,3074
1784657099.7285,500,3045
1784657099.7309,498,3050
1784657099.7372,496,3052
1784657099.7393,503,3076
1784657099.7414,505,3090
1784657099.7436,496,3079
1784657099.7456,497,3056
1784657099.7482,498,3047
1784657099.7507,501,3043
1784657099.7529,501,3033
1784657099.7551,494,3027
1784657099.7575,497,3051
1784657099.7604,495,3034
1784657099.7626,496,3036
1784657099.7650,494,3018
1784657099.7673,495,3015
1784657099.7696,498,3017
1784657099.7718,492,3009
1784657099.7741,490,3020
1784657099.7764,491,3021
1784657099.7788,492,3020
1784657099.7849,496,3044
1784657099.7871,495,3037
1784657099.7893,499,3071
1784657099.7916,498,3070
1784657099.7940,500,3050
1784657099.7963,498,3045
1784657099.7985,498,3037
1784657099.8007,493,3038
1784657099.8029,492,3025
1784657099.8052,494,3051
1784657099.8075,495,3034
1784657099.8104,496,3074
1784657099.8128,503,3088
1784657099.8150,505,3084
1784657099.8174,505,3068
1784657099.8196,501,3064
1784657099.8219,499,3052
1784657099.8242,499,3062
1784657099.8265,499,3059
1784657099.8330,499,3051
1784657099.8358,497,3042
1784657099.8385,503,3069
1784657099.8410,505,3082
1784657099.8441,502,3076
1784657099.8467,500,3078
1784657099.8492,502,3073
1784657099.8518,501,3080
1784657099.8544,499,3061
1784657099.8570,499,3058
1784657099.8601,498,3069
1784657099.8627,498,3041
1784657099.8652,496,3034
1784657099.8679,492,3027
1784657099.8704,491,3020
1784657099.8732,494,3040
1784657099.8797,500,3054
1784657099.8822,497,3046
1784657099.8848,496,3031
1784657099.8874,495,3034
1784657099.8900,495,3012
1784657099.8925,492,3032
1784657099.8959,491,3030
1784657099.8992,490,3016
1784657099.9028,492,3021
1784657099.9055,493,3030
1784657099.9085,495,3023
1784657099.9117,492,3021
1784657099.9150,490,3012
1784657099.9188,490,3014
1784657099.9218,491,3029
1784657099.9276,488,3043
1784657099.9297,490,3027
1784657099.9318,495,3039
1784657099.9338,493,3035
1784657099.9360,495,3044
1784657099.9387,497,3039
1784657099.9410,500,3040
1784657099.9437,501,3042
1784657099.9460,507,3053
1784657099.9482,501,3055
1784657099.9505,500,3047
1784657099.9527,499,3051
1784657099.9550,495,3017
1784657099.9572,496,3024
1784657099.9595,494,3025
1784657099.9618,491,3009
1784657099.9640,495,3045
1784657099.9663,494,3032
1784657099.9685,492,3028
1784657099.9748,502,3040
1784657099.9775,502,3049
1784657099.9803,503,3080
1784657099.9828,502,3036
1784657099.9856,499,3048
1784657099.9886,501,3068
1784657099.9918,503,3065
1784657099.9950,505,3058
1784657099.9986,501,3055
1784657100.0018,503,3052
1784657100.0045,500,3040
1784657100.0068,497,3041
1784657100.0092,495,3029
1784657100.0114,500,3039
1784657100.0136,499,3042
1784657100.0156,502,3067
1784657100.0230,502,3060
1784657100.0255,499,3056
1784657100.0278,500,3049
1784657100.0299,495,3058
1784657100.0319,497,3042
1784657100.0342,495,3021
1784657100.0363,492,3029
1784657100.0385,493,3028
1784657100.0406,497,3057
1784657100.0433,497,3043
1784657100.0454,485,3030
1784657100.0475,484,3032
1784657100.0498,484,3028
1784657100.0525,485,3025
1784657100.0567,486,3018
1784657100.0599,491,3029
1784657100.0640,494,3045
1784657100.0682,496,3052
1784657100.0724,495,3038
1784657100.0765,497,3068
1784657100.0822,496,3026
1784657100.0862,493,3024
1784657100.0887,499,3054
1784657100.0912,510,3052
1784657100.0936,507,3055
1784657100.0962,514,3051
1784657100.0992,520,3059
1784657100.1023,509,3052
1784657100.1052,500,3038
1784657100.1079,506,3036
1784657100.1105,499,3034
1784657100.1132,496,3024
1784657100.1159,497,3051
1784657100.1192,500,3055
1784657100.1221,498,3037
1784657100.1250,499,3044
1784657100.1314,500,3037
1784657100.1334,498,3034
1784657100.1355,496,3019
1784657100.1375,494,3015
1784657100.1396,497,3039
1784657100.1420,498,3047
1784657100.1442,498,3041
1784657100.1465,496,3036
1784657100.1487,498,3047
1784657100.1510,500,3050
1784657100.1533,497,3048
1784657100.1556,494,3036
1784657100.1582,498,3056
1784657100.1609,494,3041
1784657100.1631,496,3053
1784657100.1654,495,3037
1784657100.1677,495,3014
1784657100.1699,494,3024
1784657100.1721,491,3016
1784657100.1783,491,3006
1784657100.1811,496,3068
1784657100.1839,498,3086
1784657100.1865,498,3067
1784657100.1890,498,3066
1784657100.1918,500,3057
1784657100.1952,499,3042
1784657100.1988,500,3039
1784657100.2018,497,3045
1784657100.2042,494,3032
1784657100.2071,492,3024
1784657100.2097,491,3019
1784657100.2130,496,3012
1784657100.2169,494,3020
1784657100.2204,507,3094
1784657100.2271,513,3129
1784657100.2298,511,3129
1784657100.2326,511,3119
1784657100.2351,511,3113
1784657100.2379,511,3105
1784657100.2411,511,3106
1784657100.2441,511,3134
1784657100.2474,507,3087
1784657100.2509,503,3078
1784657100.2541,501,3076
1784657100.2567,500,3067
1784657100.2592,498,3062
1784657100.2617,511,3126
1784657100.2643,511,3121
1784657100.2669,516,3138
1784657100.2695,524,3189
1784657100.2719,528,3197
1784657100.2746,529,3193
1784657100.2774,529,3197
1784657100.2800,529,3173
1784657100.2825,527,3165
1784657100.2887,526,3137
1784657100.2914,524,3153
1784657100.2941,525,3148
1784657100.2966,522,3142
1784657100.2993,517,3135
1784657100.3023,519,3135
1784657100.3052,515,3125
1784657100.3080,514,3118
1784657100.3111,515,3138
1784657100.3145,526,3153
1784657100.3184,517,3160
1784657100.3215,517,3130
1784657100.3242,514,3131
1784657100.3270,514,3121
1784657100.3299,512,3112
1784657100.3361,516,3155
1784657100.3381,522,3174
1784657100.3402,523,3167
1784657100.3424,523,3161
1784657100.3447,525,3151
1784657100.3472,522,3142
1784657100.3495,522,3132
1784657100.3517,519,3132
1784657100.3539,515,3138
1784657100.3561,515,3117
1784657100.3586,513,3108
1784657100.3612,512,3101
1784657100.3636,512,3097
1784657100.3658,513,3112
1784657100.3681,510,3086
1784657100.3705,511,3071
1784657100.3727,505,3060
1784657100.3749,502,3064
1784657100.3771,500,3048
1784657100.3832,500,3048
1784657100.3860,503,3053
1784657100.3887,505,3110
1784657100.3913,517,3168
1784657100.3938,520,3156
1784657100.3966,520,3143
1784657100.3999,521,3137
1784657100.4030,524,3133
1784657100.4061,522,3125
1784657100.4088,520,3127
1784657100.4128,519,3117
1784657100.4165,516,3074
1784657100.4201,519,3093
1784657100.4227,511,3100
1784657100.4253,511,3084
1784657100.4317,507,3083
1784657100.4344,509,3110
1784657100.4371,504,3050
1784657100.4396,505,3055
1784657100.4425,506,3102
1784657100.4456,505,3048
1784657100.4491,498,3074
1784657100.4524,508,3119
1784657100.4553,517,3161
1784657100.4579,546,3333
1784657100.4613,549,3329
1784657100.4653,556,3315
1784657100.4690,553,3302
1784657100.4719,557,3292
1784657100.4749,554,3319
1784657100.4775,555,3275
1784657100.4800,553,3275
1784657100.4827,552,3281
1784657100.4852,549,3243
1784657100.4877,552,3247
1784657100.4937,550,3253
1784657100.4958,551,3239
1784657100.4980,546,3216
1784657100.5000,543,3230
1784657100.5021,542,3217
1784657100.5049,541,3210
1784657100.5072,534,3212
1784657100.5098,533,3197
1784657100.5120,534,3192
1784657100.5142,532,3171
1784657100.5165,533,3163
1784657100.5187,531,3168
1784657100.5212,553,3346
1784657100.5244,557,3330
1784657100.5286,559,3304
1784657100.5329,558,3329
1784657100.5401,559,3292
1784657100.5424,561,3300
1784657100.5447,558,3286
1784657100.5474,558,3282
1784657100.5502,557,3270
1784657100.5531,552,3267
1784657100.5562,550,3254
1784657100.5591,549,3248
1784657100.5627,544,3232
1784657100.5661,545,3236
1784657100.5697,545,3225
1784657100.5726,561,3388
1784657100.5751,569,3368
1784657100.5778,564,3353
1784657100.5804,564,3349
1784657100.5844,564,3336
1784657100.5895,560,3329
1784657100.5922,560,3322
1784657100.5949,561,3309
1784657100.5975,561,3306
1784657100.6007,559,3270
1784657100.6038,557,3283
1784657100.6069,555,3279
1784657100.6100,581,3473
1784657100.6137,612,3655
1784657100.6171,647,3918
1784657100.6202,663,3917
1784657100.6231,670,3909
1784657100.6258,671,3889
1784657100.6285,673,3885
1784657100.6346,673,3854
1784657100.6367,673,3812
1784657100.6387,673,3827
1784657100.6408,672,3829
1784657100.6429,704,3977
1784657100.6454,702,3963
1784657100.6477,700,3941
1784657100.6499,696,3924
1784657100.6522,695,3913
1784657100.6545,690,3898
1784657100.6568,686,3875
1784657100.6597,684,3860
1784657100.6621,681,3856
1784657100.6644,680,3846
1784657100.6667,679,3816
1784657100.6689,674,3845
1784657100.6711,669,3782
1784657100.6734,666,3764
1784657100.6757,662,3757
1784657100.6822,661,3742
1784657100.6845,659,3727
1784657100.6866,655,3713
1784657100.6889,654,3704
1784657100.6913,652,3683
1784657100.6941,646,3666
1784657100.6964,644,3664
1784657100.6986,642,3626
1784657100.7008,639,3635
1784657100.7030,639,3614
1784657100.7054,637,3613
1784657100.7079,635,3603
1784657100.7105,634,3588
1784657100.7127,630,3571
1784657100.7149,625,3563
1784657100.7171,650,3810
1784657100.7194,678,3969
1784657100.7217,682,3979
1784657100.7239,684,3937
1784657100.7300,684,3910
1784657100.7324,684,3890
1784657100.7344,683,3868
1784657100.7365,681,3868
1784657100.7386,679,3852
1784657100.7411,677,3829
1784657100.7434,674,3814
1784657100.7456,674,3799
1784657100.7478,672,3789
1784657100.7501,669,3761
1784657100.7525,665,3760
1784657100.7547,661,3717
1784657100.7571,658,3722
1784657100.7597,656,3711
1784657100.7619,652,3694
1784657100.7642,650,3696
1784657100.7666,649,3669
1784657100.7688,648,3661
1784657100.7712,644,3639
1784657100.7773,641,3632
1784657100.7800,637,3625
1784657100.7828,634,3614
1784657100.7854,632,3603
1784657100.7883,633,3590
1784657100.7914,632,3578
1784657100.7948,628,3568
1784657100.7984,625,3561
1784657100.8017,622,3547
1784657100.8045,619,3544
1784657100.8070,616,3505
1784657100.8096,614,3514
1784657100.8122,612,3503
1784657100.8148,610,3494
1784657100.8174,608,3475
1784657100.8238,608,3470
1784657100.8265,605,3450
1784657100.8293,598,3451
1784657100.8319,597,3452
1784657100.8346,593,3458
1784657100.8377,594,3426
1784657100.8407,595,3428
1784657100.8437,589,3407
1784657100.8458,589,3397
1784657100.8478,589,3387
1784657100.8499,585,3381
1784657100.8523,585,3376
1784657100.8547,605,3539
1784657100.8570,608,3529
1784657100.8593,608,3525
1784657100.8618,608,3509
1784657100.8641,608,3439
1784657100.8666,608,3493
1784657100.8690,625,3657
1784657100.8713,629,3627
1784657100.8736,629,3630
1784657100.8758,629,3617
1784657100.8780,629,3628
1784657100.8803,631,3578
1784657100.8862,628,3574
1784657100.8882,626,3584
1784657100.8904,624,3557
1784657100.8924,620,3518
1784657100.8946,619,3531
1784657100.8970,621,3538
1784657100.8994,617,3509
1784657100.9016,614,3510
1784657100.9038,612,3457
1784657100.9061,608,3490
1784657100.9088,606,3462
1784657100.9110,604,3457
1784657100.9134,599,3446
1784657100.9156,596,3440
1784657100.9179,594,3377
1784657100.9202,593,3427
1784657100.9225,588,3411
1784657100.9248,588,3412
1784657100.9270,587,3398
1784657100.9334,582,3345
1784657100.9361,581,3369
1784657100.9389,578,3375
1784657100.9415,576,3360
1784657100.9444,576,3348
1784657100.9471,572,3342
1784657100.9499,572,3338
1784657100.9532,568,3329
1784657100.9564,590,3486
1784657100.9592,605,3570
1784657100.9628,608,3559
1784657100.9665,609,3539
1784657100.9705,610,3507
1784657100.9732,609,3522
1784657100.9796,602,3512
1784657100.9818,602,3500
1784657100.9838,607,3540
1784657100.9860,603,3478
1784657100.9881,602,3469
1784657100.9904,601,3464
1784657100.9928,599,3457
1784657100.9950,599,3400
1784657100.9972,597,3431
1784657100.9995,592,3424
1784657101.0018,593,3409
1784657101.0040,589,3414
1784657101.0063,585,3398
1784657101.0093,584,3385
1784657101.0116,582,3407
1784657101.0138,579,3384
1784657101.0160,578,3342
1784657101.0184,578,3357
1784657101.0207,576,3344
1784657101.0266,574,3338
1784657101.0293,568,3327
1784657101.0320,565,3320
1784657101.0346,564,3357
1784657101.0372,563,3276
1784657101.0400,563,3283
1784657101.0432,560,3285
1784657101.0460,558,3279
1784657101.0480,557,3249
1784657101.0500,561,3264
1784657101.0520,549,3257
1784657101.0543,548,3250
1784657101.0566,547,3243
1784657101.0588,547,3234
1784657101.0608,544,3224
1784657101.0628,543,3219
1784657101.0648,544,3213
1784657101.0672,542,3211
1784657101.0695,535,3204
1784657101.0759,537,3187
1784657101.0782,532,3189
1784657101.0805,530,3178
1784657101.0827,529,3168
1784657101.0852,528,3153
1784657101.0875,529,3153
1784657101.0899,526,3152
1784657101.0925,523,3140
1784657101.0948,525,3129
1784657101.0971,520,3130
1784657101.0994,518,3122
1784657101.1018,517,3111
1784657101.1040,514,3105
1784657101.1064,513,3098
1784657101.1088,512,3090
1784657101.1111,511,3085
1784657101.1134,508,3066
1784657101.1157,505,3076
1784657101.1241,510,3104
1784657101.1268,515,3122
1784657101.1294,527,3201
1784657101.1320,529,3189
1784657101.1350,529,3182
1784657101.1378,527,3167
1784657101.1401,526,3165
1784657101.1427,524,3155
1784657101.1452,522,3157
1784657101.1477,522,3140
1784657101.1503,522,3140
1784657101.1528,518,3126
1784657101.1554,518,3121
1784657101.1582,518,3117
1784657101.1612,515,3125
1784657101.1636,512,3099
1784657101.1665,510,3099
1784657101.1691,509,3100
1784657101.1716,509,3084
1784657101.1743,506,3085
1784657101.1770,504,3063
1784657101.1795,500,3055
1784657101.1881,499,3058
1784657101.1907,497,3054
1784657101.1932,498,3042
1784657101.1958,491,3033
1784657101.1984,494,3032
1784657101.2007,500,3037
1784657101.2034,495,3028
1784657101.2059,495,3023
1784657101.2088,493,3022
1784657101.2115,494,3038
1784657101.2140,495,3049
1784657101.2167,496,3044
1784657101.2192,496,3038
1784657101.2217,496,3043
1784657101.2245,494,3040
1784657101.2269,495,3027
1784657101.2295,493,3016
1784657101.2318,493,3036
1784657101.2342,496,3046
1784657101.2368,496,3053
1784657101.2394,497,3051
1784657101.2419,496,3042
1784657101.2505,496,3037
1784657101.2531,494,3026
1784657101.2557,495,3024
1784657101.2581,493,3031
1784657101.2611,494,3054
1784657101.2637,493,3042
1784657101.2665,492,3040
1784657101.2694,495,3051
1784657101.2727,494,3045
1784657101.2764,493,3026
1784657101.2790,494,3033
1784657101.2817,491,3016
1784657101.2846,493,3034
1784657101.2875,493,3023
1784657101.2900,492,3033
1784657101.2926,492,3067
1784657101.2953,491,3040
1784657101.2979,492,3042
1784657101.3005,496,3025
1784657101.3035,495,3023
1784657101.3075,492,3028
1784657101.3146,495,3037
1784657101.3171,498,3079
1784657101.3195,498,3053
1784657101.3220,499,3040
1784657101.3244,504,3057
1784657101.3268,503,3049
1784657101.3293,501,3042
1784657101.3323,501,3038
1784657101.3348,497,3031
1784657101.3374,493,3021
1784657101.3402,492,3044
1784657101.3433,498,3079
1784657101.3459,500,3094
1784657101.3484,500,3122
1784657101.3509,505,3087
1784657101.3540,506,3074
1784657101.3565,498,3067
1784657101.3589,499,3061
1784657101.3617,497,3054
1784657101.3646,500,3051
1784657101.3673,495,3048
1784657101.3762,497,3033
1784657101.3790,493,3027
1784657101.3818,496,3065
1784657101.3845,496,3017
1784657101.3875,496,3040
1784657101.3900,497,3045
1784657101.3926,497,3043
1784657101.3953,496,3037
1784657101.3980,499,3008
1784657101.4005,498,3045
1784657101.4030,499,3038
1784657101.4057,509,3023
1784657101.4088,500,3026
1784657101.4115,496,3023
1784657101.4139,497,3024
1784657101.4164,497,3032
1784657101.4189,494,3020
1784657101.4215,493,3024
1784657101.4244,493,3007
1784657101.4269,490,3007
1784657101.4294,487,3016
1784657101.4317,491,3065
1784657101.4396,491,3036
1784657101.4422,493,3035
1784657101.4447,494,3028
1784657101.4472,491,3023
1784657101.4498,490,3015
1784657101.4521,487,3010
1784657101.4547,490,3017
1784657101.4575,495,3043
1784657101.4603,495,3036
1784657101.4630,498,3064
1784657101.4658,500,3056
1784657101.4685,500,3058
1784657101.4710,499,3048
1784657101.4739,498,3047
1784657101.4766,496,3042
1784657101.4793,495,3031
1784657101.4819,493,3027
1784657101.4846,492,3022
1784657101.4867,498,3079
1784657101.4892,500,3064
1784657101.4916,500,3056
1784657101.4942,500,3053
1784657101.5029,496,3051
1784657101.5051,498,3068
1784657101.5074,499,3051
1784657101.5097,497,3053
1784657101.5121,502,3043
1784657101.5146,506,3032
1784657101.5169,500,3043
1784657101.5194,498,3037
1784657101.5220,504,3052
1784657101.5245,498,3052
1784657101.5270,498,3040
1784657101.5294,496,3047
1784657101.5319,493,3037
1784657101.5345,496,3039
1784657101.5370,493,3032
1784657101.5399,493,3022
1784657101.5432,492,3020
1784657101.5464,494,3041
1784657101.5494,495,3042
1784657101.5520,497,3035
1784657101.5546,494,3034
1784657101.5570,494,3023
1784657101.5632,493,3018
1784657101.5657,491,3004
1784657101.5682,492,2963
1784657101.5709,494,3023
1784657101.5735,490,3013
1784657101.5761,490,3022
1784657101.5786,494,3038
1784657101.5811,495,3044
1784657101.5836,497,3052
1784657101.5861,498,3045
1784657101.5886,498,3036
1784657101.5915,499,3035
1784657101.5943,496,3041
1784657101.5969,499,3057
1784657101.5995,498,3058
1784657101.6019,501,3056
1784657101.6044,499,3056
1784657101.6068,499,3074
1784657101.6094,498,3045
1784657101.6119,498,3036
1784657101.6143,494,3027
1784657101.6166,491,3017
1784657101.6194,490,3024
1784657101.6275,488,3012
1784657101.6299,493,3056
1784657101.6325,493,3033
1784657101.6350,495,3056
1784657101.6379,497,3041
1784657101.6405,496,3034
1784657101.6430,498,3065
1784657101.6457,498,3068
1784657101.6482,498,3057
1784657101.6507,498,3043
1784657101.6531,500,3048
1784657101.6555,498,3012
1784657101.6585,497,3028
1784657101.6612,498,3028
1784657101.6638,493,3016
1784657101.6662,493,3025
1784657101.6690,491,3018
1784657101.6716,493,3033
1784657101.6742,494,3052
1784657101.6767,493,3024
1784657101.6793,495,3033
1784657101.6820,493,3018
1784657101.6910,492,3015
1784657101.6944,495,3039
1784657101.6974,494,3046
1784657101.7003,494,3038
1784657101.7035,493,3030
1784657101.7068,493,3018
1784657101.7100,493,3024
1784657101.7128,493,3034
1784657101.7164,496,3049
1784657101.7187,497,3067
1784657101.7212,503,3077
1784657101.7243,499,3070
1784657101.7274,502,3072
1784657101.7302,500,3066
1784657101.7333,502,3054
1784657101.7360,500,3052
1784657101.7388,501,3040
1784657101.7416,497,3055
