host_time_s,chA_raw,chB_env
1784845429.1043,1839,1958
1784845429.1064,1844,1958
1784845429.1086,1791,1960
1784845429.1108,1792,1957
1784845429.1129,1765,1884
1784845429.1148,1756,1948
1784845429.1167,1745,1923
1784845429.1185,1763,1955
1784845429.1204,1494,1954
1784845429.1223,1866,1954
1784845429.1241,1833,1954
1784845429.1263,1810,1953
1784845429.1286,1829,1938
1784845429.1308,1805,1952
1784845429.1330,1775,1952
1784845429.1352,1256,1951
1784845429.1374,1879,1943
1784845429.1392,1884,1947
1784845429.1409,1848,1949
1784845429.1427,1833,1949
1784845429.1444,1836,1938
1784845429.1462,1829,1943
1784845429.1479,1783,1942
1784845429.1497,1765,1973
1784845429.1515,1776,1984
1784845429.1533,1832,1946
1784845429.1551,1857,1961
1784845429.1569,1833,1951
1784845429.1587,1835,1958
1784845429.1611,1836,1950
1784845429.1634,1804,1953
1784845429.1658,1788,1958
1784845429.1682,1776,2031
1784845429.1705,1787,1952
1784845429.1725,1780,1910
1784845429.1745,1793,1970
1784845429.1765,1856,1950
1784845429.1785,1857,1951
1784845429.1804,1843,1947
1784845429.1824,1805,1946
1784845429.1844,1789,1947
1784845429.1864,1797,1946
1784845429.1884,1813,1943
1784845429.1903,1776,1943
1784845429.1923,1760,1936
1784845429.1943,1818,1943
1784845429.1963,1882,1962
1784845429.1983,1832,1931
1784845429.2003,1813,1971
1784845429.2023,1810,1959
1784845429.2043,1828,1958
1784845429.2063,1785,1957
1784845429.2083,1769,1955
1784845429.2102,1778,1956
1784845429.2121,1773,1961
1784845429.2141,958,1954
1784845429.2160,1848,1953
1784845429.2179,1844,1954
1784845429.2197,1855,1952
1784845429.2215,1811,1952
1784845429.2234,1789,1950
1784845429.2252,1786,1947
1784845429.2270,1775,1950
1784845429.2288,1761,1952
1784845429.2311,1766,1955
1784845429.2334,1837,1946
1784845429.2358,1906,1975
1784845429.2381,1869,1971
1784845429.2405,1826,1966
1784845429.2425,1811,1970
1784845429.2445,1822,1967
1784845429.2465,1822,1987
1784845429.2485,1787,1972
1784845429.2505,1764,1967
1784845429.2525,1753,1944
1784845429.2544,1813,1972
1784845429.2564,1854,1967
1784845429.2583,1841,1965
1784845429.2602,1840,1962
1784845429.2622,1841,1968
1784845429.2641,1809,1970
1784845429.2661,1789,1963
1784845429.2680,1783,1959
1784845429.2700,1793,1960
1784845429.2719,1773,1959
1784845429.2739,1618,1958
1784845429.2759,1851,1963
1784845429.2779,1859,1955
1784845429.2799,1840,1961
1784845429.2819,1798,1957
1784845429.2839,1787,1957
1784845429.2859,1811,1953
1784845429.2879,1802,1957
1784845429.2900,1770,1952
1784845429.2922,1746,1965
1784845429.2944,1804,1952
1784845429.2966,1882,1959
1784845429.2988,1882,1956
1784845429.3159,1817,1951
1784845429.3160,1819,1948
1784845429.3162,1822,1953
1784845429.3163,1766,1951
1784845429.3165,1743,1950
1784845429.3166,1763,1951
1784845429.3176,1812,1949
1784845429.3185,1336,1950
1784845429.3194,1872,1966
1784845429.3204,1853,1951
1784845429.3213,1866,1964
1784845429.3222,1834,1952
1784845429.3242,1792,1954
1784845429.3262,1792,1958
1784845429.3282,1809,1962
1784845429.3302,1794,1949
1784845429.3322,1751,1956
1784845429.3342,1799,1953
1784845429.3362,1872,1945
1784845429.3381,1863,1947
1784845429.3401,1817,1945
1784845429.3420,1806,1955
1784845429.3440,1805,1951
1784845429.3459,1804,1944
1784845429.3477,1798,1999
1784845429.3496,1779,1943
1784845429.3514,1797,1884
1784845429.3532,1838,1942
1784845429.3550,1866,1987
1784845429.3569,1842,1968
1784845429.3589,1840,1964
1784845429.3609,1841,1980
1784845429.3629,1810,1970
1784845429.3649,1776,1951
1784845429.3669,1765,1966
1784845429.3689,1792,1971
1784845429.3709,1791,1967
1784845429.3730,1787,1965
1784845429.3750,1847,1936
1784845429.3770,1892,1967
1784845429.3790,1875,1967
1784845429.3810,1823,1964
1784845429.3830,1811,1964
1784845429.3850,1812,1963
1784845429.3870,1802,1964
1784845429.3890,1761,1960
1784845429.3911,1742,1958
1784845429.3931,1732,1967
1784845429.3951,1953,1967
1784845429.3971,1848,1965
1784845429.3991,1824,1947
1784845429.4011,1835,1966
1784845429.4031,1835,1965
1784845429.4051,1802,1967
1784845429.4071,1775,1963
1784845429.4092,1789,1962
1784845429.4112,1791,1965
1784845429.4132,1813,1955
1784845429.4152,1861,1965
1784845429.4172,1856,1966
1784845429.4192,1864,1964
1784845429.4212,1840,1966
1784845429.4232,1791,1964
1784845429.4252,1811,1968
1784845429.4273,1796,1959
1784845429.4293,1785,1959
1784845429.4313,1761,1963
1784845429.4333,1757,1968
1784845429.4353,690,1971
1784845429.4373,1903,1967
1784845429.4393,1824,1952
1784845429.4413,1839,1965
1784845429.4433,1869,1959
1784845429.4454,1853,1960
1784845429.4474,1811,2016
1784845429.4494,1779,1957
1784845429.4514,1774,1968
1784845429.4534,1851,1958
1784845429.4554,1882,1989
1784845429.4574,1846,1987
1784845429.4594,1840,1989
1784845429.4614,1851,1984
1784845429.4634,1819,1985
1784845429.4655,1778,2011
1784845429.4675,1787,1986
1784845429.4695,1795,1985
1784845429.4715,1779,1988
1784845429.4735,1104,1982
1784845429.4755,1874,1984
1784845429.4775,1871,1940
1784845429.4795,1863,1983
1784845429.4815,1818,1967
1784845429.4836,1810,2012
1784845429.4856,1812,1978
1784845429.4876,1793,1954
1784845429.4896,1755,1960
1784845429.4916,1747,1985
1784845429.4936,1846,1975
1784845429.4956,1907,1989
1784845429.4976,1861,1989
1784845429.4996,1838,1986
1784845429.5017,1834,1964
1784845429.5037,1820,2025
1784845429.5057,1788,1986
1784845429.5077,1771,1977
1784845429.5097,1775,1983
1784845429.5117,1782,1991
1784845429.5137,1821,1982
1784845429.5157,1854,1977
1784845429.5177,1872,1979
1784845429.5198,1872,1977
1784845429.5218,1854,1977
1784845429.5238,1811,1982
1784845429.5258,1796,1979
1784845429.5278,1788,1975
1784845429.5298,1773,1979
1784845429.5318,1744,1971
1784845429.5338,1803,1971
1784845429.5358,1888,1973
1784845429.5379,1873,1973
1784845429.5399,1835,1938
1784845429.5419,1819,1957
1784845429.5439,1826,1969
1784845429.5459,1821,1968
1784845429.5479,1789,1968
1784845429.5499,1766,1932
1784845429.5519,1774,1968
1784845429.5539,676,1968
1784845429.5560,1941,1971
1784845429.5580,1840,1966
1784845429.5600,1820,1966
1784845429.5620,1820,1956
1784845429.5640,1816,1959
1784845429.5660,1827,1963
1784845429.5680,1807,1970
1784845429.5700,1814,1965
1784845429.5720,1805,1970
1784845429.5741,1822,1958
1784845429.5761,1871,1970
1784845429.5781,1873,1964
1784845429.5801,1849,1961
1784845429.5821,1795,1964
1784845429.5841,1787,1966
1784845429.5861,1811,1964
1784845429.5881,1813,1961
1784845429.5901,1789,1960
1784845429.5922,1753,1971
1784845429.5942,1831,1957
1784845429.5962,1886,1994
1784845429.5982,1846,1991
1784845429.6002,1814,1998
1784845429.6022,1829,1991
1784845429.6042,1815,1990
1784845429.6062,1790,1988
1784845429.6082,1770,1998
1784845429.6103,1778,2021
1784845429.6123,1785,1988
1784845429.6143,1769,1984
1784845429.6163,1435,1984
1784845429.6183,1866,1985
1784845429.6203,1873,1986
1784845429.6223,1844,2008
1784845429.6243,1807,1991
1784845429.6263,1803,1984
1784845429.6284,1809,1980
1784845429.6304,1803,2012
1784845429.6324,1773,1979
1784845429.6344,696,1942
1784845429.6364,1918,1984
1784845429.6384,1899,1976
1784845429.6404,1853,1975
1784845429.6424,1824,1977
1784845429.6444,1826,1975
1784845429.6465,1815,1980
1784845429.6485,1783,1973
1784845429.6505,1739,1969
1784845429.6525,1761,1967
1784845429.6545,1003,1970
1784845429.6565,1901,1998
1784845429.6585,1841,2004
1784845429.6605,1853,1998
1784845429.6625,1853,1995
1784845429.6645,1824,1994
1784845429.6666,1765,1994
1784845429.6686,1753,1997
1784845429.6706,1811,1995
1784845429.6726,1791,1995
1784845429.6746,693,1989
1784845429.6766,1918,1989
1784845429.6786,1879,2002
1784845429.6806,1869,1996
1784845429.6826,1824,1986
1784845429.6847,1805,1985
1784845429.6867,1823,1987
1784845429.6887,1811,2004
1784845429.6907,1774,1986
1784845429.6927,1746,1983
1784845429.6947,883,1980
1784845429.6967,1904,1989
1784845429.6987,1867,1970
1784845429.7007,1842,2014
1784845429.7028,1837,1983
1784845429.7048,1835,1990
1784845429.7068,1807,1959
1784845429.7088,1788,1978
1784845429.7108,1787,1971
1784845429.7128,1789,1978
1784845429.7148,1820,1973
1784845429.7168,1856,1976
1784845429.7188,1855,1975
1784845429.7209,1858,1994
1784845429.7229,1841,1982
1784845429.7249,1791,2006
1784845429.7269,1783,1969
1784845429.7289,1789,1984
1784845429.7309,1774,2000
1784845429.7329,1757,1975
1784845429.7349,1748,1969
1784845429.7369,691,1963
1784845429.7390,1946,1985
1784845429.7410,1865,1972
1784845429.7430,1843,1984
1784845429.7450,1854,1973
1784845429.7470,1844,2010
1784845429.7490,1818,1949
1784845429.7510,1780,1978
1784845429.7530,1782,1971
1784845429.7550,1849,1975
1784845429.7571,1870,1995
1784845429.7591,1844,1993
1784845429.7611,1838,1987
1784845429.7631,1838,1989
1784845429.7651,1815,1993
1784845429.7671,1789,1995
1784845429.7691,1786,1987
1784845429.7711,1798,1981
1784845429.7731,1759,1984
1784845429.7752,1713,1988
1784845429.7772,700,1993
1784845429.7792,2010,2020
1784845429.7812,1908,2017
1784845429.7832,1869,2017
1784845429.7852,1833,2037
1784845429.7872,1830,2014
1784845429.7892,1816,2004
1784845429.7912,1781,2005
1784845429.7933,1781,2019
1784845429.7953,1833,2004
1784845429.7973,1923,2023
1784845429.7993,1876,2019
1784845429.8013,1845,2042
1784845429.8033,1843,2019
1784845429.8053,1842,2016
1784845429.8073,1810,1997
1784845429.8093,1779,2010
1784845429.8114,1786,2014
1784845429.8134,1779,2014
1784845429.8154,1773,2012
1784845429.8174,1761,1987
1784845429.8194,689,2007
1784845429.8214,1932,2014
1784845429.8234,1889,2003
1784845429.8254,1823,2002
1784845429.8274,1806,2007
1784845429.8295,1822,2007
1784845429.8315,1815,2006
1784845429.8335,1782,2017
1784845429.8355,1838,2002
1784845429.8375,1903,2004
1784845429.8395,1899,2000
1784845429.8415,1870,1996
1784845429.8435,1835,1996
1784845429.8455,1841,1998
1784845429.8476,1826,2024
1784845429.8496,1798,2000
1784845429.8516,1776,2005
1784845429.8536,1774,2003
1784845429.8556,681,1993
1784845429.8576,1922,2002
1784845429.8596,1868,1978
1784845429.8616,1873,2007
1784845429.8636,1880,2017
1784845429.8656,1842,1994
1784845429.8677,1803,2000
1784845429.8697,1789,2004
1784845429.8717,1790,2000
1784845429.8737,1776,2004
1784845429.8757,1811,1999
1784845429.8777,1876,2000
1784845429.8797,1891,1994
1784845429.8817,1857,1995
1784845429.8837,1819,1994
1784845429.8858,1822,1994
1784845429.8878,1838,1992
1784845429.8898,1807,1991
1784845429.8918,1753,1990
1784845429.8938,1753,1991
1784845429.8958,1873,1998
1784845429.8978,1901,2036
1784845429.8998,1879,2037
1784845429.9018,1843,2031
1784845429.9039,1832,2031
1784845429.9059,1831,2032
1784845429.9079,1816,2028
1784845429.9099,1767,1990
1784845429.9119,1777,2030
1784845429.9139,1787,2047
1784845429.9159,913,2028
1784845429.9179,1885,2026
1784845429.9199,1876,2021
1784845429.9220,1889,2022
1784845429.9240,1848,2023
1784845429.9260,1812,2011
1784845429.9280,1802,2017
1784845429.9300,1815,2015
1784845429.9320,1806,2014
1784845429.9340,1767,2017
1784845429.9360,1814,2018
1784845429.9380,1899,2022
1784845429.9401,1900,2012
1784845429.9421,1855,2018
1784845429.9441,1831,2003
1784845429.9461,1834,2021
1784845429.9481,1831,2010
1784845429.9501,1805,1996
1784845429.9521,1770,2014
1784845429.9541,1764,2019
1784845429.9561,1846,2009
1784845429.9582,1907,2033
1784845429.9602,1882,2024
1784845429.9622,1882,2039
1784845429.9642,1858,2028
1784845429.9662,1831,2025
1784845429.9678,1788,2021
1784845429.9695,1788,2023
1784845429.9711,1801,2005
1784845429.9727,1782,2022
1784845429.9744,1826,2017
1784845429.9760,1898,2019
1784845429.9780,1901,2016
1784845429.9800,1882,2016
1784845429.9819,1841,2013
1784845429.9839,1820,2013
1784845429.9859,1814,2013
1784845429.9879,1809,2004
1784845429.9900,1788,2010
1784845429.9922,1774,2004
1784845429.9944,1837,2007
1784845429.9965,1920,2026
1784845429.9987,1879,2031
1784845430.0100,1845,2027
1784845430.0101,1841,2019
1784845430.0103,1841,2030
1784845430.0104,1812,2023
1784845430.0105,1792,2024
1784845430.0106,1785,2028
1784845430.0126,1757,2034
1784845430.0145,1838,2024
1784845430.0165,1922,2026
1784845430.0185,1895,2023
1784845430.0205,1901,2015
1784845430.0225,1875,2022
1784845430.0244,1822,2022
1784845430.0264,1804,2019
1784845430.0283,1805,2012
1784845430.0302,1803,2015
1784845430.0322,1759,2080
1784845430.0341,1776,2011
1784845430.0362,1902,2007
1784845430.0382,1888,2020
1784845430.0403,1851,2008
1784845430.0423,1819,2006
1784845430.0443,1825,2008
1784845430.0464,1831,2008
1784845430.0481,1808,2003
1784845430.0498,1781,2012
1784845430.0516,1777,2007
1784845430.0533,1840,2000
1784845430.0550,1888,2017
1784845430.0568,1862,2020
1784845430.0593,1867,2014
1784845430.0619,1870,1956
1784845430.0645,1811,2013
1784845430.0670,1785,2016
1784845430.0696,1781,2023
1784845430.0714,1793,2011
1784845430.0732,1785,2012
1784845430.0751,1815,2014
1784845430.0769,1908,2008
1784845430.0787,1910,2005
1784845430.0805,1888,2028
1784845430.0843,1844,2008
1784845430.0881,1808,2027
1784845430.0919,1810,2012
1784845430.0956,1811,2022
1784845430.0994,1785,2005
1784845430.1032,1760,2014
1784845430.1037,1842,1969
1784845430.1041,1890,2024
1784845430.1045,1873,2025
1784845430.1050,1838,2026
1784845430.1054,1848,2028
1784845430.1059,1845,1992
1784845430.1075,1818,2018
1784845430.1092,1785,2014
1784845430.1109,1785,2016
1784845430.1126,1798,2025
1784845430.1143,1852,2082
1784845430.1160,1889,2027
1784845430.1243,1870,2029
1784845430.1326,1861,2028
1784845430.1409,1840,2026
1784845430.1492,1823,2018
1784845430.1576,1809,2006
1784845430.1576,1814,2022
1784845430.1577,1805,2019
1784845430.1577,1773,2032
1784845430.1578,1803,2018
1784845430.1579,1914,2015
1784845430.1579,1903,2020
1784845430.1580,1851,2010
1784845430.1581,1834,2005
1784845430.1581,1840,2011
1784845430.1582,1826,2011
1784845430.1583,1779,2011
1784845430.1583,1751,2011
1784845430.1596,1763,2016
1784845430.1608,1847,2009
1784845430.1620,1915,2023
1784845430.1633,1880,2026
1784845430.1645,1868,2030
1784845430.1657,1884,2010
1784845430.1679,1847,2013
1784845430.1700,1801,2019
1784845430.1721,1776,2017
1784845430.1743,1777,2019
1784845430.1764,1762,2008
1784845430.1786,1406,2010
1784845430.1809,1885,2019
1784845430.1832,1888,2015
1784845430.1856,1876,2008
1784845430.1879,1841,1990
1784845430.1902,1813,2012
1784845430.1926,1831,2007
1784845430.1934,1814,2008
1784845430.1943,1776,2010
1784845430.1952,1748,2016
1784845430.1961,1825,2005
1784845430.1970,1898,2006
1784845430.1990,1888,2003
1784845430.2009,1861,2009
1784845430.2029,1845,2005
1784845430.2049,1843,1998
1784845430.2069,1808,2003
1784845430.2089,1774,2001
1784845430.2108,1769,1991
1784845430.2127,1787,2007
1784845430.2146,1775,2004
1784845430.2165,685,1986
1784845430.2184,1951,1994
1784845430.2203,1873,1997
1784845430.2224,1880,2005
1784845430.2245,1828,1991
1784845430.2266,1821,2002
1784845430.2287,1821,1992
1784845430.2308,1817,2008
1784845430.2329,1773,1996
1784845430.2356,1813,1989
1784845430.2383,1900,1994
1784845430.2411,1896,1985
1784845430.2438,1856,1973
1784845430.2466,1843,1994
1784845430.2493,1837,2005
1784845430.2526,1844,1989
1784845430.2560,1813,1985
1784845430.2593,1774,1990
1784845430.2626,1779,2021
1784845430.2659,1853,2003
1784845430.2693,1891,2018
1784845430.2695,1850,2011
1784845430.2697,1857,1989
1784845430.2699,1851,2010
1784845430.2701,1833,2003
1784845430.2704,1794,2012
1784845430.2719,1780,2009
1784845430.2734,1788,2003
1784845430.2749,1794,2015
1784845430.2764,1827,2003
1784845430.2779,1891,2008
1784845430.2794,1895,2001
1784845430.2812,1863,1976
1784845430.2831,1803,1999
1784845430.2849,1779,2003
1784845430.2867,1790,2008
1784845430.2886,1805,1999
1784845430.2904,1779,2004
1784845430.2923,1744,2000
1784845430.2942,1849,1998
1784845430.2962,1930,2013
1784845430.2981,1872,2015
1784845430.3000,1846,2016
1784845430.3019,1831,2007
1784845430.3040,1839,2014
1784845430.3061,1809,2012
1784845430.3081,1782,2006
1784845430.3102,1776,2007
1784845430.3122,1775,2005
1784845430.3143,684,2001
1784845430.3162,1903,2003
1784845430.3181,1865,1996
1784845430.3199,1841,2005
1784845430.3218,1818,2001
1784845430.3237,1817,2007
1784845430.3256,1832,1999
1784845430.3284,1835,1992
1784845430.3313,1805,2000
1784845430.3341,1775,1992
1784845430.3370,734,2005
1784845430.3398,1886,1995
1784845430.3482,1869,1994
1784845430.3483,1853,1986
1784845430.3485,1844,1993
1784845430.3486,1848,1992
1784845430.3488,1832,1992
1784845430.3490,1811,1991
1784845430.3509,1784,1993
1784845430.3527,1779,1993
1784845430.3546,1836,1990
1784845430.3565,1897,2006
1784845430.3584,1875,2000
1784845430.3603,1847,2000
1784845430.3623,1843,1993
1784845430.3643,1802,1998
1784845430.3664,1768,2001
1784845430.3684,1775,1995
1784845430.3704,1782,1997
1784845430.3724,1780,1996
1784845430.3744,1742,2006
1784845430.3764,1925,1991
1784845430.3784,1894,2011
1784845430.3803,1897,1994
1784845430.3823,1854,1990
1784845430.3843,1811,1986
1784845430.3861,1811,1989
1784845430.3878,1809,1986
1784845430.3896,1780,1990
1784845430.3914,1765,1985
1784845430.3931,1764,1970
1784845430.3949,1910,2001
1784845430.3974,1881,2014
1784845430.3999,1839,2013
1784845430.4025,1839,2010
1784845430.4050,1833,2024
1784845430.4075,1810,2006
1784845430.4106,1787,2007
1784845430.4136,1792,1979
1784845430.4167,1792,2004
1784845430.4197,1780,2004
1784845430.4228,1872,2003
1784845430.4258,1857,2000
1784845430.4267,1865,2011
1784845430.4275,1844,2000
1784845430.4284,1813,2039
1784845430.4292,1776,1999
1784845430.4301,1750,1990
1784845430.4309,1753,1997
1784845430.4328,1793,1997
1784845430.4346,1811,2005
1784845430.4365,1910,2013
1784845430.4383,1911,1992
1784845430.4402,1869,1992
1784845430.4420,1834,1992
1784845430.4444,1829,1989
1784845430.4468,1833,1989
1784845430.4491,1814,1988
1784845430.4515,1776,1984
1784845430.4539,1775,2003
1784845430.4563,1834,1990
1784845430.4580,1874,1955
1784845430.4598,1829,2012
1784845430.4615,1850,1962
1784845430.4633,1876,1995
1784845430.4650,1831,1990
1784845430.4760,1746,1983
1784845430.4761,1798,1985
1784845430.4762,1814,1990
1784845430.4764,1810,1985
1784845430.4765,1808,1986
1784845430.4766,1888,2003
1784845430.4790,1892,2001
1784845430.4814,1862,1994
1784845430.4837,1829,2003
1784845430.4861,1819,1974
1784845430.4885,1808,1992
1784845430.4908,1791,1992
1784845430.4924,1775,1957
1784845430.4940,1771,1994
1784845430.4956,1846,1989
1784845430.4972,1922,2065
1784845430.4989,1868,2031
1784845430.5005,1818,2016
1784845430.5025,1822,2035
1784845430.5044,1830,2000
1784845430.5064,1821,2017
1784845430.5084,1783,2017
1784845430.5104,1773,2020
1784845430.5124,1780,2030
1784845430.5141,1769,2012
1784845430.5159,1112,2029
1784845430.5176,1984,2016
1784845430.5193,1913,2006
1784845430.5211,1887,2017
1784845430.5228,1841,2018
1784845430.5252,1825,2019
1784845430.5276,1808,1994
1784845430.5300,1784,2008
1784845430.5324,1760,2022
1784845430.5348,1846,2006
1784845430.5368,1936,2050
1784845430.5387,1935,2054
1784845430.5407,1870,2051
1784845430.5427,1858,2036
1784845430.5446,1864,2045
1784845430.5466,1850,2042
1784845430.5486,1812,2037
1784845430.5505,1777,2038
1784845430.5525,1777,2038
1784845430.5545,1851,1988
1784845430.5565,1904,2034
1784845430.5584,1854,2036
1784845430.5603,1840,2034
1784845430.5623,1844,2033
1784845430.5642,1853,2030
1784845430.5661,1799,2022
1784845430.5681,1795,2030
1784845430.5700,1789,2029
1784845430.5721,1772,2032
1784845430.5742,689,2024
1784845430.5763,1985,2043
1784845430.5784,1924,2040
1784845430.5805,1898,2048
1784845430.5825,1840,2032
1784845430.5847,1814,2039
1784845430.5869,1803,2037
1784845430.5891,1808,2045
1784845430.5913,1747,2038
1784845430.5935,1729,2026
1784845430.5957,1691,2034
1784845430.5974,1922,2028
1784845430.5992,1896,2032
1784845430.6010,1851,2048
1784845430.6028,1841,2026
1784845430.6046,1844,2041
1784845430.6069,1818,2029
1784845430.6092,1784,2029
1784845430.6115,1779,2037
1784845430.6138,1790,2026
1784845430.6161,1777,2030
1784845430.6184,1744,2003
1784845430.6201,1719,2035
1784845430.6218,1989,2040
1784845430.6235,1883,1989
1784845430.6252,1866,2020
1784845430.6269,1844,2019
1784845430.6286,1853,2031
1784845430.6311,1843,2031
1784845430.6335,1805,2013
1784845430.6359,1825,2019
1784845430.6384,1917,2023
1784845430.6408,1917,2021
1784845430.6433,1878,2029
1784845430.6447,1843,1995
1784845430.6462,1853,2021
1784845430.6476,1854,2025
1784845430.6491,1785,2014
1784845430.6506,1738,2017
1784845430.6520,1774,2017
1784845430.6544,1881,2017
1784845430.6569,1937,2066
1784845430.6593,1887,2054
1784845430.6617,1864,2063
1784845430.6641,1843,1971
1784845430.6739,1837,2063
1784845430.6740,1800,2056
1784845430.6741,1786,2061
1784845430.6742,1805,2058
1784845430.6743,1795,2070
1784845430.6744,1831,2056
1784845430.6764,1877,2052
1784845430.6784,1883,2051
1784845430.6803,1881,2053
1784845430.6823,1837,2023
1784845430.6843,1812,2042
1784845430.6862,1824,2041
1784845430.6883,1816,2043
1784845430.6904,1789,2035
1784845430.6925,1754,2055
1784845430.6945,1826,2036
1784845430.6966,1900,2032
1784845430.6987,1877,2037
1784845430.7006,1843,2037
1784845430.7025,1840,2035
1784845430.7044,1841,2039
1784845430.7063,1817,2029
1784845430.7082,1772,2037
1784845430.7101,1776,2031
1784845430.7119,1793,2044
1784845430.7137,1842,2029
1784845430.7154,1900,2032
1784845430.7172,1878,2039
1784845430.7190,1873,2079
1784845430.7207,1854,2105
1784845430.7231,1821,2035
1784845430.7255,1791,2030
1784845430.7278,1796,2027
1784845430.7302,1798,2026
1784845430.7326,1771,2077
1784845430.7345,1783,2025
1784845430.7365,1906,2029
1784845430.7385,1909,2021
1784845430.7405,1874,2026
1784845430.7425,1843,2018
1784845430.7445,1828,2017
1784845430.7465,1827,2014
1784845430.7484,1812,2010
1784845430.7503,1769,2007
1784845430.7523,1761,2053
1784845430.7542,1851,2013
1784845430.7561,1906,2032
1784845430.7581,1869,2032
1784845430.7600,1865,2031
1784845430.7620,1858,2028
1784845430.7640,1847,2052
1784845430.7659,1804,2030
1784845430.7679,1784,2028
1784845430.7701,1780,2027
1784845430.7722,1779,2023
1784845430.7744,1828,2029
1784845430.7765,1890,2021
1784845430.7787,1904,2020
1784845430.7808,1896,2018
1784845430.7828,1846,2020
1784845430.7849,1817,2020
1784845430.7869,1822,2016
1784845430.7889,1815,2013
1784845430.7909,1785,2000
1784845430.8021,1771,2023
1784845430.8023,1834,1950
1784845430.8024,1943,2031
1784845430.8026,1886,2033
1784845430.8028,1840,2031
1784845430.8030,1822,2031
1784845430.8049,1802,2030
1784845430.8069,1812,2034
1784845430.8089,1795,2030
1784845430.8109,1780,2028
1784845430.8128,1799,2030
1784845430.8148,686,2022
1784845430.8175,1919,2027
1784845430.8202,1874,2026
1784845430.8229,1879,2021
1784845430.8256,1860,2033
1784845430.8283,1825,2018
1784845430.8310,1806,2019
1784845430.8322,1805,2017
1784845430.8333,1808,2020
1784845430.8345,1776,2020
1784845430.8357,1807,2014
1784845430.8369,1905,2012
1784845430.8380,1904,2013
1784845430.8401,1871,2009
1784845430.8422,1834,2015
1784845430.8443,1837,2008
1784845430.8464,1807,2011
1784845430.8485,1793,2009
1784845430.8506,1762,2003
1784845430.8527,1776,2022
1784845430.8548,1879,2008
1784845430.8569,1919,2044
1784845430.8590,1869,2042
1784845430.8611,1858,2031
1784845430.8721,1862,2039
1784845430.8723,1844,2035
1784845430.8725,1801,2031
1784845430.8726,1785,2045
1784845430.8728,1799,2033
1784845430.8730,1775,2028
1784845430.8749,1754,2030
1784845430.8768,1740,2031
1784845430.8788,1752,2028
1784845430.8807,691,2026
1784845430.8826,1923,2032
1784845430.8845,1863,2029
1784845430.8866,1859,2027
1784845430.8886,1840,2009
1784845430.8907,1822,2022
1784845430.8927,1791,2025
1784845430.8947,1866,2016
1784845430.8968,1951,2058
1784845430.8988,1914,2060
1784845430.9007,1876,2065
1784845430.9027,1854,2058
1784845430.9047,1852,2059
1784845430.9067,1837,2052
1784845430.9087,1801,2060
1784845430.9107,1801,2051
1784845430.9126,1808,2042
1784845430.9146,1788,2067
1784845430.9166,1983,2058
1784845430.9185,1881,2050
1784845430.9205,1894,2046
1784845430.9228,1855,2043
1784845430.9251,1831,2043
1784845430.9274,1837,2041
1784845430.9296,1839,2039
1784845430.9319,1828,2037
1784845430.9420,1777,2071
1784845430.9421,1795,2089
1784845430.9422,1903,2034
1784845430.9424,1892,2037
1784845430.9425,1860,2033
1784845430.9426,1823,2031
1784845430.9446,1831,2031
1784845430.9466,1819,2038
1784845430.9486,1809,2028
1784845430.9506,1771,2020
1784845430.9526,1766,2042
1784845430.9545,1846,2030
1784845430.9566,1903,2028
1784845430.9586,1858,2032
1784845430.9606,1852,2025
1784845430.9627,1851,2007
1784845430.9647,1840,2022
1784845430.9667,1799,2021
1784845430.9691,1780,2018
1784845430.9715,1791,2022
1784845430.9739,1785,2017
1784845430.9763,1809,2017
1784845430.9786,1879,2018
1784845430.9810,1879,2017
1784845430.9823,1879,2046
1784845430.9836,1839,2020
1784845430.9850,1808,2018
1784845430.9863,1815,2011
1784845430.9876,1815,2011
1784845430.9889,1773,2013
1784845430.9913,1760,2022
1784845430.9937,1817,2009
1784845430.9961,1909,2007
1784845430.9985,1878,2002
1784845431.0010,1843,2005
1784845431.0030,1841,2002
1784845431.0050,1839,2005
1784845431.0070,1815,2018
1784845431.0091,1777,2000
1784845431.0111,1767,2002
1784845431.0131,1796,2005
1784845431.0150,1881,2000
1784845431.0170,1905,2033
1784845431.0189,1878,2057
1784845431.0208,1868,2027
1784845431.0227,1855,2033
1784845431.0247,1810,2030
1784845431.0265,1753,2030
1784845431.0284,1765,2031
1784845431.0303,1807,2035
1784845431.0322,1783,2018
1784845431.0341,1766,2021
1784845431.0359,1887,2028
1784845431.0380,1903,2063
1784845431.0401,1889,2027
1784845431.0422,1850,2025
1784845431.0443,1853,2024
1784845431.0464,1840,2046
1784845431.0485,1795,2022
1784845431.0506,1768,2016
1784845431.0528,1747,2025
1784845431.0550,1856,2023
1784845431.0572,1896,2021
1784845431.0594,1856,2016
1784845431.0703,1840,2017
1784845431.0705,1848,2017
1784845431.0707,1841,2015
1784845431.0708,1808,2011
1784845431.0710,1786,2011
1784845431.0712,1797,2011
1784845431.0730,1783,2013
1784845431.0749,1823,2018
1784845431.0767,1883,2003
1784845431.0786,1888,2008
1784845431.0804,1877,2001
1784845431.0823,1840,2000
1784845431.0843,1811,1998
1784845431.0863,1809,2005
1784845431.0884,1818,2000
1784845431.0904,1787,2001
1784845431.0924,1761,2008
1784845431.0944,1823,2001
1784845431.0964,1913,2014
1784845431.0985,1874,2007
1784845431.1005,1832,2007
1784845431.1025,1828,2018
1784845431.1045,1816,2007
1784845431.1066,1784,1999
1784845431.1084,1814,2010
1784845431.1102,1808,2004
1784845431.1120,1808,2000
1784845431.1138,1144,2000
1784845431.1157,1894,1991
1784845431.1175,1862,2011
1784845431.1199,1881,2005
1784845431.1223,1859,2010
1784845431.1247,1822,2006
1784845431.1271,1794,2010
1784845431.1296,1809,2007
1784845431.1315,1819,2004
1784845431.1334,1777,1991
1784845431.1353,689,2007
1784845431.1372,1941,2003
1784845431.1392,1901,2002
1784845431.1411,1862,2000
1784845431.1429,1831,1994
1784845431.1448,1823,1979
1784845431.1467,1835,1996
1784845431.1485,1807,1994
1784845431.1504,1777,2003
1784845431.1522,1772,1997
1784845431.1543,1792,1983
1784845431.1564,1581,2009
1784845431.1584,1966,2000
1784845431.1605,1854,1994
1784845431.1626,1865,1992
1784845431.1646,1896,1997
1784845431.1667,1855,1988
1784845431.1687,1831,1989
1784845431.1708,1816,1989
1784845431.1729,1809,1993
1784845431.1749,1859,1986
1784845431.1770,1907,2022
1784845431.1786,1904,2015
1784845431.1803,1889,2017
1784845431.1819,1839,2016
1784845431.1836,1820,2012
1784845431.1852,1811,2015
1784845431.1869,1830,2013
1784845431.1893,1788,2006
1784845431.1917,1775,2024
1784845431.1941,1841,2013
1784845431.1965,1919,2026
1784845431.1989,1874,2029
1784845431.2009,1833,2023
1784845431.2029,1832,2017
1784845431.2050,1830,2019
1784845431.2070,1815,2025
1784845431.2090,1783,2017
1784845431.2110,1777,2016
1784845431.2134,1794,2028
1784845431.2157,1835,2012
1784845431.2181,1901,2028
1784845431.2205,1864,2021
1784845431.2229,1865,2025
1784845431.2252,1854,2024
1784845431.2267,1832,2021
1784845431.2281,1827,2015
1784845431.2296,1826,2022
1784845431.2310,1803,2045
1784845431.2325,1775,2023
1784845431.2339,1443,2014
1784845431.2360,1895,2017
1784845431.2381,1874,2014
1784845431.2401,1855,2014
1784845431.2422,1829,2012
1784845431.2443,1827,2013
1784845431.2464,1835,2010
1784845431.2482,1793,2012
1784845431.2501,1775,2007
1784845431.2519,1765,2012
1784845431.2537,915,1987
1784845431.2556,1911,2027
1784845431.2574,1864,2019
1784845431.2600,1819,2015
1784845431.2625,1849,2017
1784845431.2650,1871,2018
1784845431.2676,1823,2014
1784845431.2701,1799,2016
1784845431.2718,1797,2013
1784845431.2736,1801,2042
1784845431.2753,1824,2011
1784845431.2771,1892,2068
1784845431.2788,1900,2010
1784845431.2805,1908,2011
1784845431.2825,1834,2014
1784845431.2845,1792,2007
1784845431.2865,1792,2003
1784845431.2884,1808,2004
1784845431.2904,1792,2001
1784845431.2924,1768,2008
1784845431.2944,1818,1993
1784845431.2964,1921,2022
1784845431.2985,1893,2023
1784845431.3005,1847,2022
1784845431.3025,1834,2021
1784845431.3045,1832,2017
1784845431.3071,1815,2018
1784845431.3096,1769,2017
1784845431.3122,1764,2015
1784845431.3147,1785,2006
1784845431.3173,1814,2018
1784845431.3198,1869,2011
1784845431.3213,1865,2013
1784845431.3227,1863,2012
1784845431.3241,1853,2056
1784845431.3256,1838,2006
1784845431.3270,1813,1992
1784845431.3382,1818,2008
1784845431.3384,1804,2015
1784845431.3386,1745,2010
1784845431.3388,1802,2015
1784845431.3389,1931,1998
1784845431.3391,1903,2007
1784845431.3410,1878,2001
1784845431.3429,1838,2008
1784845431.3448,1840,1998
1784845431.3467,1840,2004
1784845431.3486,1818,1995
1784845431.3505,1766,2021
1784845431.3526,1755,1999
1784845431.3546,693,2000
1784845431.3566,1915,2016
1784845431.3586,1856,2003
1784845431.3606,1850,2002
1784845431.3627,1867,2000
1784845431.3645,1842,2002
1784845431.3664,1811,1999
1784845431.3683,1787,2001
1784845431.3702,1796,2001
1784845431.3721,1800,2003
1784845431.3740,1830,1998
1784845431.3761,1882,2003
1784845431.3782,1875,2004
1784845431.3804,1877,2024
1784845431.3825,1838,2000
1784845431.3846,1812,1999
1784845431.3868,1805,2001
1784845431.3888,1812,1995
1784845431.3908,1789,1998
1784845431.3928,1768,1993
1784845431.3948,1740,1999
1784845431.3969,1917,2020
1784845431.4081,1876,2015
1784845431.4082,1845,2041
1784845431.4083,1827,2009
1784845431.4085,1853,2012
1784845431.4086,1840,2012
1784845431.4087,1778,2004
1784845431.4106,1769,2012
1784845431.4125,1806,2005
1784845431.4145,1707,2005
1784845431.4164,1910,2042
1784845431.4183,1865,2041
1784845431.4202,1854,2034
1784845431.4223,1854,2033
1784845431.4244,1815,2039
1784845431.4265,1790,2033
1784845431.4286,1799,2026
1784845431.4307,1805,2031
1784845431.4329,1784,2031
1784845431.4347,1612,2031
1784845431.4366,1900,2037
1784845431.4384,1900,2030
1784845431.4403,1861,2047
1784845431.4421,1812,2024
1784845431.4440,1814,2023
1784845431.4459,1827,2043
1784845431.4478,1813,2027
1784845431.4496,1789,2051
1784845431.4515,1782,2009
1784845431.4534,1749,2020
1784845431.4553,1919,2032
1784845431.4575,1847,2032
1784845431.4598,1835,2032
1784845431.4620,1844,2030
1784845431.4643,1830,2030
1784845431.4665,1782,2027
1784845431.4686,1731,2027
1784845431.4707,1773,2024
1784845431.4727,1832,2033
1784845431.4748,1871,2021
1784845431.4768,1905,2033
1784845431.4789,1894,2036
1784845431.4809,1878,2030
1784845431.4830,1840,2049
1784845431.4850,1809,2032
1784845431.4870,1803,2041
1784845431.4891,1809,2030
1784845431.4911,1794,2025
1784845431.4930,1772,2025
1784845431.4950,682,2022
1784845431.4969,1947,2027
1784845431.4989,1894,2025
1784845431.5008,1842,2024
1784845431.5028,1833,2024
1784845431.5047,1835,2019
1784845431.5065,1810,1988
1784845431.5084,1781,2015
1784845431.5103,1772,2018
1784845431.5122,1788,2023
1784845431.5140,1851,2014
1784845431.5159,1902,2018
1784845431.5177,1873,2019
1784845431.5195,1880,2022
1784845431.5214,1878,2018
1784845431.5232,1821,2022
1784845431.5250,1783,2018
1784845431.5275,1787,2009
1784845431.5299,1796,2012
1784845431.5323,1774,2008
1784845431.5348,1698,2013
1784845431.5372,1911,2011
1784845431.5392,1897,2020
1784845431.5411,1864,2008
1784845431.5431,1815,2011
1784845431.5450,1817,2006
1784845431.5470,1809,2008
1784845431.5489,1797,2012
1784845431.5508,1776,2009
1784845431.5527,1762,2008
1784845431.5546,1835,2005
1784845431.5565,1908,2010
1784845431.5583,1867,2018
1784845431.5602,1854,2016
1784845431.5623,1873,2014
1784845431.5643,1849,2013
1784845431.5664,1808,2014
1784845431.5684,1791,2009
1784845431.5705,1808,1994
1784845431.5725,1824,2012
1784845431.5745,999,2024
1784845431.5765,2019,1985
1784845431.5785,1878,1952
1784845431.5805,1872,2006
1784845431.5825,1845,2001
1784845431.5845,1814,1981
1784845431.5863,1806,2001
1784845431.5881,1800,2002
1784845431.5899,1751,2000
1784845431.5917,1737,2009
1784845431.5935,1827,2001
1784845431.5953,1897,2006
1784845431.5977,1882,1998
1784845431.6001,1855,2001
1784845431.6025,1809,1993
1784845431.6049,1832,1998
1784845431.6074,1813,2013
1784845431.6093,1800,1996
1784845431.6112,1780,1975
1784845431.6131,1785,1998
1784845431.6150,1859,1994
1784845431.6169,1879,2012
1784845431.6188,1871,2012
1784845431.6208,1858,2008
1784845431.6229,1866,2006
1784845431.6249,1796,2005
1784845431.6269,1784,2004
1784845431.6289,1782,2008
1784845431.6309,1784,2004
1784845431.6328,1786,2011
1784845431.6347,1798,2006
1784845431.6367,1875,2002
1784845431.6386,1936,2016
1784845431.6406,1926,2000
1784845431.6425,1881,1999
1784845431.6446,1823,1999
1784845431.6467,1821,2021
1784845431.6488,1777,1998
1784845431.6509,1762,1997
1784845431.6530,1762,1999
1784845431.6551,1878,2012
1784845431.6571,1988,2101
1784845431.6591,1814,2106
1784845431.6610,1826,2099
1784845431.6630,1895,2096
1784845431.6650,1865,2096
1784845431.6760,1852,2068
1784845431.6761,1846,2093
1784845431.6762,1896,2110
1784845431.6763,1922,2093
1784845431.6764,1849,2089
1784845431.6765,1941,2147
1784845431.6786,1943,2160
1784845431.6806,1777,2146
1784845431.6827,1724,2141
1784845431.6847,1542,2141
1784845431.6867,1498,2141
1784845431.6888,1643,2133
1784845431.6912,1595,2142
1784845431.6935,1702,2135
1784845431.6959,1875,2141
1784845431.6983,2043,2130
1784845431.7006,1943,2130
1784845431.7030,1981,2128
1784845431.7045,1878,2126
1784845431.7060,1713,2128
1784845431.7075,1761,2127
1784845431.7090,1761,2127
1784845431.7105,1661,2129
1784845431.7120,1772,2107
1784845431.7139,1610,2133
1784845431.7158,1532,2119
1784845431.7177,1624,2118
1784845431.7196,1882,2119
1784845431.7215,2008,2122
1784845431.7234,2003,2113
1784845431.7257,1887,2114
1784845431.7281,2135,2157
1784845431.7304,2162,2224
1784845431.7327,2093,2209
1784845431.7351,1893,2221
1784845431.7378,2113,2217
1784845431.7405,2243,2335
1784845431.7433,1582,2306
1784845431.7460,1720,2305
1784845431.7487,1682,2301
1784845431.7515,2050,2314
1784845431.7526,2110,2275
1784845431.7538,2270,2299
1784845431.7549,1898,2295
1784845431.7560,2100,2291
1784845431.7572,1723,2287
1784845431.7583,1534,2288
1784845431.7603,1484,2286
1784845431.7624,1192,2278
1784845431.7645,1342,2266
1784845431.7665,1287,2279
1784845431.7686,1274,2278
1784845431.7706,1409,2274
1784845431.7726,1875,2276
1784845431.7746,2202,2310
1784845431.7766,2127,2348
1784845431.7786,2193,2347
1784845431.7806,1993,2344
1784845431.7825,1760,2338
1784845431.7847,1407,2338
1784845431.7868,1344,2334
1784845431.7889,1468,2332
1784845431.7911,1445,2330
1784845431.7932,1540,2349
1784845431.8041,1572,2328
1784845431.8043,1830,2324
1784845431.8045,1899,2320
1784845431.8047,1921,2321
1784845431.8048,2046,2318
1784845431.8050,1928,2316
1784845431.8069,2037,2313
1784845431.8088,2028,2314
1784845431.8106,2030,2310
1784845431.8125,2024,2315
1784845431.8144,2087,2312
1784845431.8163,2348,2366
1784845431.8184,2246,2366
1784845431.8204,2109,2359
1784845431.8225,2209,2356
1784845431.8246,2179,2352
1784845431.8267,2415,2419
1784845431.8288,2419,2433
1784845431.8307,2299,2428
1784845431.8326,1835,2428
1784845431.8346,2064,2427
1784845431.8365,1594,2420
1784845431.8385,1738,2417
1784845431.8404,1538,2415
1784845431.8423,1177,2417
1784845431.8441,1237,2418
1784845431.8460,1328,2411
1784845431.8479,1404,2416
1784845431.8498,1348,2404
1784845431.8516,1086,2399
1784845431.8539,982,2353
1784845431.8561,1841,2387
1784845431.8584,1768,2399
1784845431.8606,1937,2397
1784845431.8629,2066,2389
1784845431.8741,2148,2392
1784845431.8742,1780,2383
1784845431.8744,1945,2383
1784845431.8745,1873,2384
1784845431.8746,1958,2390
1784845431.8748,2058,2371
1784845431.8768,2354,2382
1784845431.8788,2150,2379
1784845431.8808,2089,2381
1784845431.8828,1863,2406
1784845431.8848,1909,2375
1784845431.8868,1836,2371
1784845431.8888,1738,2400
1784845431.8907,1859,2357
1784845431.8927,1937,2363
1784845431.8947,1888,2358
1784845431.8967,1672,2363
1784845431.8987,2098,2359
1784845431.9007,2201,2358
1784845431.9026,2307,2355
1784845431.9046,2396,2416
1784845431.9066,2234,2414
1784845431.9086,2009,2414
1784845431.9106,1715,2431
1784845431.9123,1624,2416
1784845431.9141,1534,2410
1784845431.9158,1605,2402
1784845431.9176,1754,2400
1784845431.9193,1940,2403
1784845431.9211,2004,2396
1784845431.9235,1955,2391
1784845431.9259,1460,2391
1784845431.9283,1522,2396
1784845431.9307,1437,2385
1784845431.9331,1354,2394
1784845431.9350,1516,2383
1784845431.9370,1830,2384
1784845431.9390,1681,2379
1784845431.9410,1561,2377
1784845431.9430,1975,2372
1784845431.9449,2119,2374
1784845431.9472,1837,2369
1784845431.9495,1895,2371
1784845431.9518,1717,2364
1784845431.9541,1650,2371
1784845431.9564,1689,2358
1784845431.9587,1684,2353
1784845431.9603,1790,2353
1784845431.9618,1891,2352
1784845431.9634,1988,2349
1784845431.9649,1950,2346
1784845431.9665,2028,2347
1784845431.9680,2064,2347
1784845431.9701,1865,2341
1784845431.9722,1980,2358
1784845431.9743,2043,2345
1784845431.9764,2119,2334
1784845431.9785,2347,2350
1784845431.9805,2265,2346
1784845431.9827,2096,2337
1784845431.9849,2122,2341
1784845431.9871,1983,2307
1784845431.9892,2131,2339
1784845431.9914,2342,2373
1784845432.0021,2092,2341
1784845432.0023,2361,2541
1784845432.0025,2213,2603
1784845432.0026,1758,2615
1784845432.0028,1447,2594
1784845432.0030,1509,2587
1784845432.0050,1667,2553
1784845432.0070,1345,2570
1784845432.0090,1376,2573
1784845432.0110,1283,2559
1784845432.0131,1319,2559
1784845432.0151,935,2553
1784845432.0169,1817,2559
1784845432.0188,1752,2557
1784845432.0207,1729,2552
1784845432.0225,1618,2545
1784845432.0244,1615,2549
1784845432.0262,1784,2546
1784845432.0283,1757,2534
1784845432.0303,1818,2541
1784845432.0324,1833,2539
1784845432.0344,1482,2526
1784845432.0365,1928,2531
1784845432.0385,1981,2529
1784845432.0406,2070,2528
1784845432.0426,2076,2526
1784845432.0446,2045,2518
1784845432.0466,2007,2516
1784845432.0486,2028,2513
1784845432.0506,1890,2513
1784845432.0528,1877,2504
1784845432.0550,1997,2510
1784845432.0572,2017,2507
1784845432.0593,2017,2505
1784845432.0615,1947,2501
1784845432.0720,2026,2498
1784845432.0721,2014,2489
1784845432.0722,2042,2493
1784845432.0723,2133,2487
1784845432.0724,2157,2468
1784845432.0725,1992,2469
1784845432.0746,1934,2482
1784845432.0766,1107,2478
1784845432.0787,1918,2478
1784845432.0807,1768,2476
1784845432.0827,2019,2472
1784845432.0848,1872,2465
1784845432.0868,1807,2464
1784845432.0887,1535,2465
1784845432.0907,1438,2515
1784845432.0927,1488,2452
1784845432.0947,682,2473
1784845432.0966,2032,2417
1784845432.0986,1712,2447
1784845432.1006,1693,2452
1784845432.1026,1663,2450
1784845432.1046,1531,2440
1784845432.1065,1498,2468
1784845432.1085,1444,2411
1784845432.1104,1571,2438
1784845432.1123,1832,2440
1784845432.1142,2000,2433
1784845432.1161,1917,2432
1784845432.1180,1902,2431
1784845432.1199,1873,2424
1784845432.1223,1937,2426
1784845432.1246,1939,2410
1784845432.1269,1921,2418
1784845432.1292,1955,2416
1784845432.1315,1975,2413
1784845432.1421,1913,2410
1784845432.1422,1652,2408
1784845432.1423,2007,2409
1784845432.1424,1950,2406
1784845432.1425,1955,2400
1784845432.1426,1949,2402
1784845432.1446,1936,2398
1784845432.1466,1925,2397
1784845432.1487,1852,2403
1784845432.1507,1854,2385
1784845432.1527,1813,2387
1784845432.1548,1227,2385
1784845432.1568,1966,2384
1784845432.1588,1879,2386
1784845432.1608,1852,2386
1784845432.1628,1904,2380
1784845432.1649,1888,2338
1784845432.1669,1855,2345
1784845432.1693,1831,2375
1784845432.1717,1788,2364
1784845432.1741,1837,2367
1784845432.1765,1842,2367
1784845432.1789,1508,2365
1784845432.1813,1876,2372
1784845432.1826,1935,2354
1784845432.1838,1888,2354
1784845432.1851,1798,2355
1784845432.1864,1806,2363
1784845432.1876,1758,2356
1784845432.1889,1716,2351
1784845432.1913,1688,2336
1784845432.1938,1718,2346
1784845432.1962,1781,2360
1784845432.1986,1750,2341
1784845432.2011,1702,2338
1784845432.2030,1765,2312
1784845432.2050,1795,2348
1784845432.2070,1837,2331
1784845432.2090,1747,2328
1784845432.2110,1805,2326
1784845432.2129,1829,2327
1784845432.2149,1883,2321
1784845432.2169,1934,2334
1784845432.2189,1906,2322
1784845432.2209,1882,2320
1784845432.2229,1851,2317
1784845432.2249,1819,2313
1784845432.2268,1797,2313
1784845432.2287,1803,2312
1784845432.2306,1797,2308
1784845432.2325,1789,2304
1784845432.2344,1819,2306
1784845432.2363,1886,2299
1784845432.2382,1888,2294
1784845432.2402,1862,2294
1784845432.2421,1824,2298
1784845432.2441,1813,2295
1784845432.2461,1819,2292
1784845432.2480,1805,2291
1784845432.2502,1785,2288
1784845432.2524,1763,2291
1784845432.2546,1818,2291
1784845432.2568,1886,2285
1784845432.2590,1861,2281
1784845432.2703,1837,2282
1784845432.2705,1826,2274
1784845432.2707,1842,2279
1784845432.2709,1788,2272
1784845432.2711,1768,2272
1784845432.2713,1779,2275
1784845432.2732,1779,2275
1784845432.2751,1821,2271
1784845432.2770,1887,2262
1784845432.2789,1870,2264
1784845432.2808,1854,2261
1784845432.2827,1836,2256
1784845432.2846,1801,2260
1784845432.2865,1793,2266
1784845432.2885,1817,2256
1784845432.2904,1792,2251
1784845432.2923,1766,2254
1784845432.2942,1813,2254
1784845432.2963,1901,2257
1784845432.2983,1842,2246
1784845432.3004,1840,2248
1784845432.3024,1818,2247
1784845432.3045,1825,2266
1784845432.3065,1829,2241
1784845432.3085,1781,2238
1784845432.3105,1772,2237
1784845432.3125,1788,2238
1784845432.3145,740,2242
1784845432.3165,1966,2236
1784845432.3185,1860,2271
1784845432.3206,1864,2230
1784845432.3228,1860,2226
1784845432.3249,1828,2227
1784845432.3270,1803,2219
1784845432.3292,1804,2232
1784845432.3401,1804,2213
1784845432.3403,1785,2235
1784845432.3405,1822,2219
1784845432.3406,1875,2218
1784845432.3408,1873,2220
1784845432.3410,1856,2215
1784845432.3434,1811,2217
1784845432.3458,1815,2206
1784845432.3482,1816,2208
1784845432.3507,1812,2203
1784845432.3531,1766,2206
1784845432.3555,1750,2215
1784845432.3570,1848,2204
1784845432.3584,1893,2204
1784845432.3599,1855,2203
1784845432.3613,1825,2198
1784845432.3628,1818,2198
1784845432.3642,1809,2169
1784845432.3662,1787,2195
1784845432.3682,1769,2214
1784845432.3702,1774,2195
1784845432.3722,1776,2200
1784845432.3742,1806,2192
1784845432.3762,1843,2190
1784845432.3781,1853,2188
1784845432.3799,1853,2180
1784845432.3818,1820,2180
1784845432.3837,1797,2162
1784845432.3855,1792,2156
1784845432.3874,1801,2180
1784845432.3907,1789,2173
1784845432.3940,1759,2181
1784845432.3972,1795,2176
1784845432.4005,1872,2183
1784845432.4038,1857,2170
1784845432.4049,1828,2163
1784845432.4060,1809,2171
1784845432.4072,1815,2161
1784845432.4083,1814,2163
1784845432.4094,1779,2166
1784845432.4105,1778,2122
1784845432.4126,1775,2179
1784845432.4146,1844,2162
1784845432.4166,1844,2162
1784845432.4187,1825,2117
1784845432.4207,1827,2154
1784845432.4228,1831,2173
1784845432.4247,1807,2168
1784845432.4267,1783,2148
1784845432.4286,1788,2148
1784845432.4306,1792,2150
1784845432.4326,1772,2134
1784845432.4345,1811,2144
1784845432.4365,1850,2149
1784845432.4384,1853,2146
1784845432.4403,1838,2144
1784845432.4423,1809,2138
1784845432.4442,1809,2134
1784845432.4461,1810,2140
1784845432.4483,1798,2143
1784845432.4504,1751,2137
1784845432.4526,1732,2147
1784845432.4547,1815,2133
1784845432.4569,1860,2128
1784845432.4682,1826,2134
1784845432.4684,1810,2128
1784845432.4686,1821,2100
1784845432.4688,1819,2118
1784845432.4689,1795,2123
1784845432.4691,1781,2128
1784845432.4710,1787,2141
1784845432.4729,1803,2088
1784845432.4748,1827,2126
1784845432.4768,1840,2120
1784845432.4787,1844,2120
1784845432.4806,1840,2121
1784845432.4826,1810,2123
1784845432.4846,1776,2116
1784845432.4866,1780,2106
1784845432.4886,1790,2111
1784845432.4907,1782,2087
1784845432.4927,1753,2033
1784845432.4946,1757,2115
1784845432.4966,1020,2104
1784845432.4985,1873,2110
1784845432.5005,1823,2104
1784845432.5025,1810,2104
1784845432.5044,1825,2109
1784845432.5063,1820,2104
1784845432.5082,1777,2075
1784845432.5100,1766,2113
1784845432.5119,1779,2106
1784845432.5138,1824,2099
1784845432.5156,1839,2094
1784845432.5178,1826,2115
1784845432.5200,1836,2165
1784845432.5222,1844,2096
1784845432.5243,1820,2105
1784845432.5265,1799,2093
1784845432.5286,1788,2093
1784845432.5307,1776,2091
1784845432.5327,1769,2097
1784845432.5348,1794,2083
1784845432.5369,1831,2087
1784845432.5389,1851,2080
1784845432.5409,1817,2087
1784845432.5429,1787,2077
1784845432.5448,1763,2069
1784845432.5468,1788,2081
1784845432.5488,1769,2068
1784845432.5508,1729,2076
1784845432.5529,1737,2081
1784845432.5551,1814,2067
1784845432.5572,1845,2076
1784845432.5594,1809,2080
1784845432.5616,1806,2075
1784845432.5637,1824,2058
1784845432.5654,1816,2052
1784845432.5672,1787,2068
1784845432.5689,1764,2067
1784845432.5706,1773,2059
1784845432.5723,1782,2079
1784845432.5740,1806,2065
1784845432.5763,1823,2066
1784845432.5786,1828,2105
1784845432.5809,1830,2063
1784845432.5832,1808,2062
1784845432.5855,1767,2062
1784845432.5961,1773,2062
1784845432.5963,1791,2055
1784845432.5965,1784,2057
1784845432.5966,1753,2058
1784845432.5968,1779,2055
1784845432.5969,1840,2060
1784845432.5989,1817,2056
1784845432.6008,1791,2053
1784845432.6028,1781,2037
1784845432.6047,1796,2053
1784845432.6067,1791,2061
1784845432.6086,1762,2040
1784845432.6106,1748,2060
1784845432.6126,1769,2052
1784845432.6146,1773,2046
1784845432.6166,1815,2040
1784845432.6187,1807,2036
1784845432.6207,1812,2033
1784845432.6226,1819,2043
1784845432.6245,1794,2034
1784845432.6263,1765,2034
1784845432.6282,1771,2038
1784845432.6301,1775,2007
1784845432.6320,1765,2044
1784845432.6339,1788,2032
1784845432.6357,1816,2032
1784845432.6376,1843,2043
1784845432.6394,1819,2041
1784845432.6413,1781,2026
1784845432.6431,1776,2023
1784845432.6455,1794,2023
1784845432.6479,1790,2033
1784845432.6503,1768,2025
1784845432.6526,1748,2031
1784845432.6550,1802,2023
1784845432.6570,1833,2027
1784845432.6590,1821,2018
1784845432.6610,1798,2020
1784845432.6630,1803,2017
1784845432.6650,1796,2016
1784845432.6669,1767,2015
1784845432.6688,1750,2014
1784845432.6707,1761,2011
1784845432.6726,1772,2015
1784845432.6745,1548,1998
1784845432.6763,1796,2012
1784845432.6782,1804,2011
1784845432.6803,1822,2010
1784845432.6824,1801,2005
1784845432.6844,1767,2006
1784845432.6865,1776,2004
1784845432.6886,1788,2005
1784845432.6907,1790,1990
1784845432.6926,1758,2006
1784845432.6945,1787,1977
1784845432.6964,1839,2002
1784845432.6983,1834,2005
1784845432.7003,1800,1998
1784845432.7022,1786,1997
1784845432.7044,1801,2000
1784845432.7067,1802,1954
1784845432.7089,1762,1997
1784845432.7111,1753,1994
1784845432.7134,1764,1994
1784845432.7242,1419,1995
1784845432.7244,1835,1992
1784845432.7246,1804,2002
1784845432.7247,1809,1993
1784845432.7249,1819,1982
1784845432.7251,1793,1990
1784845432.7275,1760,1992
1784845432.7299,1771,1993
1784845432.7324,1795,1991
1784845432.7348,1792,1987
1784845432.7373,1744,1987
1784845432.7397,1665,1980
1784845432.7411,1845,1983
1784845432.7425,1828,1985
1784845432.7440,1794,1985
1784845432.7454,1797,1982
1784845432.7468,1802,1987
1784845432.7482,1791,1978
1784845432.7503,1761,1981
1784845432.7524,1748,1985
1784845432.7544,1666,1977
1784845432.7565,1841,1976
1784845432.7586,1822,1978
1784845432.7606,1808,1975
1784845432.7625,1823,1973
1784845432.7643,1811,1967
1784845432.7661,1781,1968
1784845432.7679,1762,1973
1784845432.7697,1769,1973
1784845432.7715,1784,1977
1784845432.7748,1803,2031
1784845432.7780,1836,1969
1784845432.7812,1829,1968
1784845432.7844,1834,1967
1784845432.7876,1812,1971
1784845432.7888,1772,1967
1784845432.7900,1774,1969
1784845432.7912,1786,1974
1784845432.7923,1763,1964
1784845432.7935,1760,1969
1784845432.7947,1816,1967
1784845432.7967,1866,1962
1784845432.7987,1856,1961
1784845432.8007,1823,1960
1784845432.8027,1794,1967
1784845432.8047,1791,1962
1784845432.8067,1788,1963
1784845432.8086,1768,1958
1784845432.8106,1760,1962
1784845432.8126,1777,1958
1784845432.8146,1816,1968
1784845432.8166,1854,1952
1784845432.8186,1824,1956
1784845432.8205,1823,1956
1784845432.8224,1829,1969
1784845432.8244,1807,1954
1784845432.8263,1781,1986
1784845432.8283,1787,1931
1784845432.8302,1782,1951
1784845432.8324,1760,1949
1784845432.8346,1606,1954
1784845432.8368,1839,1945
1784845432.8390,1844,1952
1784845432.8412,1837,1948
1784845432.8520,1807,1946
1784845432.8521,1797,1946
1784845432.8522,1806,1950
1784845432.8523,1795,1950
1784845432.8524,1778,1948
1784845432.8525,1768,1946
1784845432.8546,1821,1946
1784845432.8566,1879,1943
1784845432.8587,1839,1861
1784845432.8607,1807,1944
1784845432.8627,1822,1949
1784845432.8648,1815,1943
1784845432.8667,1781,1942
1784845432.8686,1757,1941
1784845432.8706,1769,1937
1784845432.8725,1778,1938
1784845432.8744,1807,1942
1784845432.8764,1847,1926
1784845432.8784,1845,1943
1784845432.8804,1841,1938
1784845432.8825,1817,1943
1784845432.8845,1782,1941
1784845432.8865,1789,1937
1784845432.8885,1790,1938
1784845432.8921,1780,1939
1784845432.8957,1757,1937
1784845432.8994,1090,1956
1784845432.9005,1935,1936
1784845432.9016,1878,1963
1784845432.9028,1837,1938
1784845432.9039,1808,1938
1784845432.9051,1808,1940
1784845432.9062,1807,1930
1784845432.9083,1777,1934
1784845432.9104,1758,1921
1784845432.9125,1775,1935
1784845432.9146,699,1908
1784845432.9167,1898,1967
1784845432.9188,1832,1957
1784845432.9208,1824,1941
1784845432.9227,1831,1955
1784845432.9247,1811,1958
1784845432.9267,1774,1964
1784845432.9286,1785,1951
1784845432.9306,1792,1967
1784845432.9324,1780,1949
1784845432.9342,1810,1948
1784845432.9360,1858,1982
1784845432.9378,1870,1950
1784845432.9395,1851,1962
1784845432.9413,1797,1947
1784845432.9436,1795,1944
1784845432.9458,1806,1941
1784845432.9481,1796,1948
1784845432.9503,1774,1944
1784845432.9525,1757,1937
1784845432.9546,1766,1917
1784845432.9567,1768,1942
1784845432.9588,1747,1943
1784845432.9609,1400,1946
1784845432.9630,1871,1944
1784845432.9651,1853,1957
1784845432.9672,1820,1944
1784845432.9693,1793,1940
1784845432.9714,1787,1941
1784845432.9735,1798,1967
1784845432.9754,1797,1939
1784845432.9774,1869,1960
1784845432.9794,1860,1957
1784845432.9814,1872,1952
1784845432.9834,1848,1958
1784845432.9941,1811,1962
1784845432.9943,1805,1962
1784845432.9945,1805,1954
1784845432.9946,1791,1936
1784845432.9948,1772,1969
1784845432.9950,1809,1964
1784845432.9977,1872,1955
1784845433.0004,1849,1952
1784845433.0031,1805,1943
1784845433.0057,1801,1944
1784845433.0084,1807,1950
1784845433.0111,1804,1949
1784845433.0123,1785,1950
1784845433.0135,1773,1949
1784845433.0147,1779,1953
1784845433.0159,1831,1950
1784845433.0171,1864,1964
1784845433.0183,1823,1964
1784845433.0203,1834,1968
1784845433.0224,1838,1963
1784845433.0244,1828,1961
1784845433.0265,1803,1964
1784845433.0285,1793,1964
1784845433.0306,1804,1925
1784845433.0324,1776,1956
1784845433.0342,1784,1962
1784845433.0360,1835,1957
1784845433.0378,1844,1955
1784845433.0396,1823,1950
1784845433.0414,1780,1957
1784845433.0437,1803,1937
1784845433.0460,1810,1984
1784845433.0483,1803,1953
1784845433.0506,1779,1955
1784845433.0529,1792,1950
1784845433.0549,1801,1970
1784845433.0568,1917,1982
1784845433.0588,1858,1982
1784845433.0607,1818,1983
1784845433.0627,1829,1982
1784845433.0646,1825,1981
1784845433.0666,1791,1974
1784845433.0686,1740,1979
1784845433.0706,1730,1978
1784845433.0726,1720,1975
1784845433.0746,1722,1975
1784845433.0766,1823,1952
1784845433.0786,1915,1973
1784845433.0806,1940,1971
1784845433.0826,1907,1974
1784845433.0846,1851,1973
1784845433.0865,1701,1967
1784845433.0885,1776,1962
1784845433.0906,1801,1977
1784845433.0926,1797,1964
1784845433.0946,1822,1969
1784845433.0966,1757,1927
1784845433.0986,691,1978
1784845433.1007,1933,1967
1784845433.1024,1893,1959
1784845433.1041,1746,1966
1784845433.1058,1681,1966
1784845433.1075,1928,1994
1784845433.1092,2035,2055
1784845433.1110,1816,2058
1784845433.1133,1799,2049
1784845433.1155,1702,2049
1784845433.1178,1649,2038
1784845433.1201,1753,2049
1784845433.1224,1725,2051
1784845433.1244,1604,2035
1784845433.1265,1750,2037
1784845433.1285,1814,2038
1784845433.1305,1759,2016
1784845433.1325,1989,2038
1784845433.1345,1913,2032
1784845433.1365,1887,2032
1784845433.1386,1938,2020
1784845433.1406,2156,2154
1784845433.1426,2199,2220
1784845433.1446,2030,2215
1784845433.1466,1919,2215
1784845433.1485,1464,2211
1784845433.1504,1389,2211
1784845433.1523,1516,2204
1784845433.1541,1560,2222
1784845433.1560,1588,2200
1784845433.1579,1824,2195
1784845433.1600,1582,2198
1784845433.1621,1568,2194
1784845433.1642,1613,2196
1784845433.1663,1366,2190
1784845433.1684,1263,2162
1784845433.1705,1473,2189
1784845433.1726,1625,2147
1784845433.1747,1754,2191
1784845433.1769,2137,2119
1784845433.1790,2158,2193
1784845433.1811,2071,2169
1784845433.1921,2201,2198
1784845433.1923,2062,2205
1784845433.1924,2285,2290
1784845433.1926,2124,2279
1784845433.1928,1938,2276
1784845433.1929,1825,2275
1784845433.1949,1824,2272
1784845433.1969,1652,2270
1784845433.1989,1596,2275
1784845433.2009,1610,2264
1784845433.2029,1664,2266
1784845433.2048,1680,2264
1784845433.2071,1744,2263
1784845433.2095,1889,2255
1784845433.2118,1771,2258
1784845433.2141,1682,2255
1784845433.2164,1217,2254
1784845433.2187,1770,2250
1784845433.2203,1693,2249
1784845433.2218,1786,2245
1784845433.2234,1704,2245
1784845433.2249,1655,2249
1784845433.2265,1608,2243
1784845433.2280,1800,2238
1784845433.2299,1874,2246
1784845433.2318,1951,2241
1784845433.2337,2040,2235
1784845433.2356,1892,2214
1784845433.2375,1733,2234
1784845433.2394,1925,2229
1784845433.2417,1887,2231
1784845433.2441,1883,2227
1784845433.2464,1893,2225
1784845433.2488,1814,2240
1784845433.2511,1453,2222
1784845433.2538,1502,2227
1784845433.2564,1528,2220
1784845433.2591,1530,2189
1784845433.2618,1603,2225
1784845433.2644,1752,2225
1784845433.2671,1764,2215
1784845433.2683,1908,2211
1784845433.2695,2004,2216
1784845433.2707,1762,2202
1784845433.2718,1883,2206
1784845433.2730,1745,2209
1784845433.2742,1583,2199
1784845433.2763,1968,2205
1784845433.2783,2557,2579
1784845433.2804,2384,2549
1784845433.2824,2322,2544
1784845433.2845,2069,2540
1784845433.2865,1552,2535
1784845433.2885,1272,2529
1784845433.2905,1128,2535
1784845433.2925,1170,2535
1784845433.2945,1219,2525
1784845433.2965,1375,2523
1784845433.2985,1457,2515
1784845433.3009,1601,2521
1784845433.3032,1767,2516
1784845433.3056,1824,2515
1784845433.3079,1749,2510
1784845433.3102,1836,2507
1784845433.3200,1570,2502
1784845433.3201,1592,2506
1784845433.3202,1922,2499
1784845433.3203,2051,2486
1784845433.3204,1880,2498
1784845433.3205,1849,2488
1784845433.3226,1857,2492
1784845433.3246,1891,2478
1784845433.3267,1860,2485
1784845433.3287,1808,2477
1784845433.3307,1758,2480
1784845433.3328,1716,2484
1784845433.3348,1713,2467
1784845433.3368,1897,2462
1784845433.3388,1831,2464
1784845433.3408,1793,2461
1784845433.3428,1811,2483
1784845433.3448,1985,2457
1784845433.3467,1946,2462
1784845433.3487,1829,2450
1784845433.3506,1899,2419
1784845433.3526,2030,2456
1784845433.3545,1988,2444
1784845433.3565,2234,2441
1784845433.3583,1854,2433
1784845433.3601,1742,2437
1784845433.3619,1710,2435
1784845433.3637,1784,2433
1784845433.3656,1983,2442
1784845433.3674,1935,2377
1784845433.3698,1712,2421
1784845433.3723,1743,2425
1784845433.3748,1697,2419
1784845433.3772,1544,2416
1784845433.3797,1288,2409
1784845433.3815,1181,2415
1784845433.3833,1152,2407
1784845433.3852,1202,2407
1784845433.3870,1306,2468
1784845433.3888,1490,2406
1784845433.3907,1508,2403
1784845433.3927,1313,2408
1784845433.3947,1765,2394
1784845433.3967,1783,2360
1784845433.3988,1906,2393
1784845433.4008,1995,2391
1784845433.4028,1765,2392
1784845433.4048,1983,2407
1784845433.4068,2081,2384
1784845433.4088,2021,2370
1784845433.4108,1959,2382
1784845433.4128,1896,2403
1784845433.4148,1752,2377
1784845433.4167,1818,2372
1784845433.4187,1619,2372
1784845433.4206,1660,2371
1784845433.4226,1807,2351
1784845433.4245,1793,2369
1784845433.4265,1737,2368
1784845433.4296,1709,2359
1784845433.4327,1759,2358
1784845433.4359,1913,2358
1784845433.4390,1921,2354
1784845433.4421,1860,2348
1784845433.4480,1876,2352
1784845433.4481,1803,2349
1784845433.4482,1734,2347
1784845433.4483,1884,2345
1784845433.4484,1817,2343
1784845433.4485,1713,2335
1784845433.4505,1750,2344
1784845433.4526,1878,2338
1784845433.4546,2071,2600
1784845433.4567,2293,2574
1784845433.4587,2042,2564
1784845433.4608,1677,2559
1784845433.4628,1229,2572
1784845433.4648,1179,2569
1784845433.4668,1227,2559
1784845433.4688,1293,2559
1784845433.4709,1331,2564
1784845433.4729,1293,2546
1784845433.4748,1473,2553
1784845433.4767,1541,2550
1784845433.4786,1539,2543
1784845433.4805,1570,2540
1784845433.4824,1609,2540
1784845433.4843,1775,2541
1784845433.4860,1772,2539
1784845433.4878,1702,2532
1784845433.4896,1846,2537
1784845433.4913,1906,2533
1784845433.4931,1836,2691
1784845433.4949,1850,2686
1784845433.4973,1820,2682
1784845433.4997,1795,2670
1784845433.5021,1766,2667
1784845433.5045,1825,2671
1784845433.5069,1875,2644
1784845433.5090,1808,2656
1784845433.5110,1767,2665
1784845433.5131,1765,2653
1784845433.5151,1834,2650
1784845433.5172,1926,2650
1784845433.5192,1742,2649
1784845433.5212,1677,2646
1784845433.5231,1761,2634
1784845433.5250,1802,2636
1784845433.5269,1715,2633
1784845433.5288,1683,2630
1784845433.5308,1719,2623
1784845433.5327,1723,2632
1784845433.5347,1704,2621
1784845433.5367,1687,2638
1784845433.5386,1717,2618
1784845433.5406,1723,2604
1784845433.5425,1688,2605
1784845433.5445,1658,2603
1784845433.5464,1737,2603
1784845433.5483,1807,2605
1784845433.5502,1811,2599
1784845433.5521,1808,2599
1784845433.5540,1797,2594
1784845433.5562,1708,2598
1784845433.5584,1653,2592
1784845433.5606,1682,2558
1784845433.5627,1655,2559
1784845433.5649,1649,2564
1784845433.5761,1615,2573
1784845433.5763,1613,2559
1784845433.5765,1568,2559
1784845433.5766,1565,2555
1784845433.5768,1939,2556
1784845433.5770,1635,2552
1784845433.5789,1685,2570
1784845433.5809,1772,2547
1784845433.5829,1792,2546
1784845433.5848,1640,2534
1784845433.5868,1710,2545
1784845433.5888,1680,2536
1784845433.5909,1751,2541
1784845433.5931,1795,2525
1784845433.5953,1781,2539
1784845433.5974,1744,2539
1784845433.5996,1769,2543
1784845433.6018,1740,2552
1784845433.6035,1728,2524
1784845433.6052,1761,2526
1784845433.6069,1780,2567
1784845433.6086,1759,2521
1784845433.6103,1746,2510
1784845433.6120,1764,2517
1784845433.6139,1768,2513
1784845433.6159,1715,2510
1784845433.6178,1713,2510
1784845433.6197,1690,2508
1784845433.6216,1719,2505
1784845433.6235,1709,2503
1784845433.6258,1696,2496
1784845433.6281,1715,2495
1784845433.6304,1736,2492
1784845433.6327,1762,2487
1784845433.6350,1745,2486
1784845433.6376,1702,2504
1784845433.6401,1703,2482
1784845433.6426,1707,2482
1784845433.6451,1733,2480
1784845433.6476,1716,2480
1784845433.6501,1729,2474
1784845433.6514,1745,2471
1784845433.6528,1728,2465
1784845433.6542,1722,2467
1784845433.6555,1733,2463
1784845433.6569,1730,2469
1784845433.6583,1722,2447
1784845433.6603,1713,2456
1784845433.6624,1725,2454
1784845433.6644,1749,2448
1784845433.6665,1744,2442
1784845433.6686,1720,2452
1784845433.6706,1717,2448
1784845433.6726,1752,2443
1784845433.6746,1768,2437
1784845433.6766,1761,2436
1784845433.6786,1695,2436
1784845433.6805,1717,2432
1784845433.6825,1719,2428
1784845433.6847,1708,2426
1784845433.6869,1714,2427
1784845433.6891,1746,2423
1784845433.6914,1754,2423
1784845433.6936,1717,2419
1784845433.7040,1704,2421
1784845433.7041,1709,2417
1784845433.7042,1723,2410
1784845433.7043,1714,2418
1784845433.7044,1701,2409
1784845433.7045,1723,2415
1784845433.7066,1755,2402
1784845433.7086,1728,2402
1784845433.7106,1737,2401
1784845433.7127,1753,2399
1784845433.7147,1767,2388
1784845433.7168,1724,2390
1784845433.7188,1683,2387
1784845433.7208,1690,2385
1784845433.7229,1728,2387
1784845433.7249,1758,2388
1784845433.7269,1730,2382
1784845433.7290,1732,2382
1784845433.7309,1766,2377
1784845433.7327,1783,2386
1784845433.7346,1754,2374
1784845433.7365,1727,2370
1784845433.7384,1716,2372
1784845433.7403,1732,2370
1784845433.7421,1725,2367
1784845433.7440,1727,2363
1784845433.7458,1749,2357
1784845433.7477,1757,2360
1784845433.7495,1742,2359
1784845433.7514,1731,2365
1784845433.7536,1748,2343
1784845433.7559,1749,2351
1784845433.7581,1731,2356
1784845433.7603,1724,2350
1784845433.7625,1741,2346
1784845433.7645,1772,2339
1784845433.7665,1754,2337
1784845433.7685,1727,2333
1784845433.7705,1744,2325
1784845433.7725,1744,2336
1784845433.7745,1752,2319
1784845433.7766,1723,2329
1784845433.7786,1729,2318
1784845433.7807,1748,2326
1784845433.7827,1749,2319
1784845433.7847,1733,2323
1784845433.7868,1725,2321
1784845433.7887,1752,2319
1784845433.7907,1771,2318
1784845433.7926,1734,2371
1784845433.7945,1734,2310
1784845433.7965,1748,2311
1784845433.7984,1758,2295
1784845433.8003,1740,2308
1784845433.8023,1730,2296
1784845433.8042,1749,2308
1784845433.8061,1763,2302
1784845433.8081,1742,2296
1784845433.8100,1728,2297
1784845433.8123,1743,2313
1784845433.8145,1763,2272
1784845433.8168,1739,2291
1784845433.8190,1713,2286
1784845433.8213,1739,2286
1784845433.8322,1747,2285
1784845433.8325,1767,2291
1784845433.8327,1747,2280
1784845433.8329,1738,2281
1784845433.8331,1760,2286
1784845433.8333,1754,2289
1784845433.8352,1745,2279
1784845433.8371,1741,2271
1784845433.8390,1759,2277
1784845433.8409,1746,2295
1784845433.8428,1731,2262
1784845433.8447,1716,2270
1784845433.8468,1747,2288
1784845433.8489,1749,2262
1784845433.8511,1728,2254
1784845433.8532,1731,2260
1784845433.8553,1745,2259
1784845433.8575,1774,2256
1784845433.8592,1754,2255
1784845433.8610,1740,2261
1784845433.8628,1759,2256
1784845433.8645,1782,2209
1784845433.8663,1749,2252
1784845433.8681,1723,2251
1784845433.8700,1726,2243
1784845433.8718,1734,2233
1784845433.8737,1759,2239
1784845433.8755,1745,2239
1784845433.8774,1757,2241
1784845433.8793,1778,2237
1784845433.8816,1778,2234
1784845433.8839,1729,2230
1784845433.8863,1722,2232
1784845433.8886,1742,2227
1784845433.8910,1755,2227
1784845433.8934,1745,2203
1784845433.8958,1745,2224
1784845433.8982,1763,2230
1784845433.9006,1764,2243
1784845433.9030,1741,2211
1784845433.9054,1729,2226
1784845433.9070,1737,2192
1784845433.9086,1756,2236
1784845433.9102,1746,2213
1784845433.9118,1739,2228
1784845433.9137,1742,2220
1784845433.9156,1764,2218
1784845433.9175,1745,2225
1784845433.9193,1730,2204
1784845433.9212,1737,2203
1784845433.9320,1757,2202
1784845433.9321,1761,2221
1784845433.9322,1744,2203
1784845433.9324,1752,2199
1784845433.9325,1769,2200
1784845433.9326,1770,2195
1784845433.9346,1761,2194
1784845433.9366,1742,2190
1784845433.9386,1763,2189
1784845433.9406,1751,2201
1784845433.9426,1722,2193
1784845433.9446,1721,2184
1784845433.9466,1733,2180
1784845433.9485,1747,2204
1784845433.9505,1737,2196
1784845433.9524,1727,2195
1784845433.9543,1761,2179
1784845433.9563,1760,2179
1784845433.9583,1760,2181
1784845433.9603,1756,2174
1784845433.9623,1763,2202
1784845433.9644,1760,2157
1784845433.9664,1755,2194
1784845433.9684,1711,2195
1784845433.9702,1722,2164
1784845433.9721,1734,2176
1784845433.9739,1741,2172
1784845433.9758,1738,2168
1784845433.9776,1731,2163
1784845433.9795,1754,2161
1784845433.9818,1760,2156
1784845433.9841,1744,2160
1784845433.9864,1741,2159
1784845433.9887,1762,2155
1784845433.9910,1764,2153
1784845433.9929,1744,2166
1784845433.9948,1743,2154
1784845433.9968,1748,2153
1784845433.9987,1764,2154
1784845434.0006,1754,2149
1784845434.0025,1756,2148
1784845434.0045,1768,2148
1784845434.0066,1768,2147
1784845434.0086,1754,2138
1784845434.0106,1724,2124
1784845434.0126,1740,2145
1784845434.0146,1759,2137
1784845434.0166,1746,2138
1784845434.0185,1737,2138
1784845434.0205,1738,2136
1784845434.0225,1759,2127
1784845434.0244,1760,2128
1784845434.0264,1731,2130
1784845434.0284,1727,2130
1784845434.0304,1738,2125
1784845434.0325,1765,2138
1784845434.0345,1757,2127
1784845434.0365,1742,2123
1784845434.0386,1761,2125
1784845434.0407,1770,2121
1784845434.0428,1744,2122
1784845434.0450,1743,2121
1784845434.0471,1764,2116
1784845434.0493,1774,2118
1784845434.0611,1749,2096
1784845434.0620,1743,2121
1784845434.0629,1744,2115
1784845434.0639,1753,2116
1784845434.0648,1744,2097
1784845434.0657,1734,2119
1784845434.0668,1750,2110
1784845434.0679,1765,2116
1784845434.0690,1747,2106
1784845434.0701,1728,2105
1784845434.0712,1724,2111
1784845434.0723,1744,2112
1784845434.0743,1757,2104
1784845434.0764,1732,2103
1784845434.0784,1741,2104
1784845434.0805,1770,2098
1784845434.0826,1786,2101
1784845434.0846,1745,2119
1784845434.0866,1734,2097
1784845434.0886,1764,2095
1784845434.0905,1773,2095
1784845434.0925,1749,2111
1784845434.0944,1749,2094
1784845434.0964,1759,2106
1784845434.0982,1747,2090
1784845434.1000,1713,2088
1784845434.1018,1721,2088
1784845434.1036,1725,2089
1784845434.1054,1754,2088
1784845434.1073,1746,2091
1784845434.1095,1736,2087
1784845434.1118,1740,2088
1784845434.1140,1750,2083
1784845434.1163,1756,2079
1784845434.1186,1739,2081
1784845434.1207,1743,2076
1784845434.1227,1761,2076
1784845434.1248,1767,2077
1784845434.1269,1744,2068
1784845434.1290,1744,2069
1784845434.1311,1762,2064
1784845434.1333,1770,2064
1784845434.1355,1745,2068
1784845434.1377,1747,2064
1784845434.1399,1775,2068
1784845434.1422,1788,2065
1784845434.1444,1765,2038
1784845434.1461,1712,2073
1784845434.1477,1710,2083
1784845434.1494,1734,2055
1784845434.1511,1728,2063
1784845434.1528,1721,2075
1784845434.1545,1728,2040
1784845434.1564,1784,2071
1784845434.1584,1695,2059
1784845434.1603,1720,2052
1784845434.1622,1757,2073
1784845434.1641,1781,2043
1784845434.1660,1726,2043
1784845434.1683,1727,2048
1784845434.1707,1701,2058
1784845434.1730,1780,2053
1784845434.1753,1784,2049
1784845434.1776,1774,2086
1784845434.1880,1774,2038
1784845434.1882,1793,2035
1784845434.1884,1774,2044
1784845434.1886,1768,2057
1784845434.1888,1751,2038
1784845434.1890,1751,2073
1784845434.1910,1768,2037
1784845434.1929,1770,2033
1784845434.1948,1714,2036
1784845434.1968,1741,2033
1784845434.1987,1773,2029
1784845434.2006,1752,2026
1784845434.2026,1733,2006
1784845434.2045,1741,2025
1784845434.2065,1757,2024
1784845434.2084,1752,2021
1784845434.2103,1745,2026
1784845434.2123,1760,2011
1784845434.2142,1759,2024
1784845434.2162,1712,2024
1784845434.2181,1703,2033
1784845434.2201,1710,2020
1784845434.2220,1725,2024
1784845434.2240,1739,2021
1784845434.2259,1731,2021
1784845434.2278,1728,2020
1784845434.2297,1761,2018
1784845434.2316,1760,2032
1784845434.2335,1743,2022
1784845434.2354,1723,2011
1784845434.2377,1746,2018
1784845434.2401,1760,2014
1784845434.2424,1739,2000
1784845434.2448,1733,2007
1784845434.2472,1759,1992
1784845434.2490,1760,2013
1784845434.2509,1758,2010
1784845434.2528,1757,2036
1784845434.2547,1765,2010
1784845434.2566,1788,2006
1784845434.2585,1784,2013
1784845434.2606,1760,2005
1784845434.2626,1758,2007
1784845434.2646,1765,2004
1784845434.2667,1744,2017
1784845434.2687,1711,1996
1784845434.2707,1716,1978
1784845434.2727,1735,2001
1784845434.2746,1751,1992
1784845434.2766,1725,1997
1784845434.2786,1715,1987
1784845434.2805,1743,1993
1784845434.2825,1747,1992
1784845434.2845,1731,1996
1784845434.2865,1726,1996
1784845434.2885,1747,1980
1784845434.2905,1750,1994
1784845434.2925,1745,1968
1784845434.2945,1740,2002
1784845434.2968,1757,1993
1784845434.2992,1755,1989
1784845434.3015,1745,1993
1784845434.3038,1733,1981
1784845434.3062,1756,1989
1784845434.3160,1767,1975
1784845434.3161,1763,1985
1784845434.3163,1746,1983
1784845434.3164,1753,1979
1784845434.3165,1775,1982
1784845434.3167,1776,1976
1784845434.3187,1777,1982
1784845434.3207,1773,1981
1784845434.3227,1771,1976
1784845434.3247,1754,1980
1784845434.3268,1727,1975
1784845434.3288,1716,1979
1784845434.3308,1743,1950
1784845434.3327,1745,1979
1784845434.3347,1742,1980
1784845434.3367,1745,1975
1784845434.3387,1753,1976
1784845434.3406,1772,1973
1784845434.3429,1771,1972
1784845434.3451,1750,1970
1784845434.3474,1761,1967
1784845434.3496,1775,1965
1784845434.3518,1754,1962
1784845434.3541,1726,1967
1784845434.3555,1581,1972
1784845434.3570,1785,1969
1784845434.3585,1764,1969
1784845434.3600,1743,1969
1784845434.3614,1751,1967
1784845434.3629,1765,1966
1784845434.3653,1766,1987
1784845434.3677,1743,1965
1784845434.3700,1729,1967
1784845434.3724,1752,1970
1784845434.3748,1769,1961
1784845434.3768,1749,1966
1784845434.3789,1753,1957
1784845434.3809,1771,2016
1784845434.3829,1772,1959
1784845434.3849,1746,1960
1784845434.3870,1743,1961
1784845434.3895,1762,1957
1784845434.3920,1771,1954
1784845434.3945,1753,1952
1784845434.3971,1744,1954
1784845434.3996,1418,1951
1784845434.4021,1808,1956
1784845434.4034,1778,1946
1784845434.4047,1763,1950
1784845434.4061,1752,1950
1784845434.4074,1769,1963
1784845434.4087,1761,1983
1784845434.4100,1745,1946
1784845434.4121,1753,1948
1784845434.4141,1768,1943
1784845434.4162,1760,1953
1784845434.4183,1730,1940
1784845434.4203,1294,1951
1784845434.4224,1791,1943
1784845434.4246,1804,1953
1784845434.4268,1789,1942
1784845434.4290,1785,1943
1784845434.4312,1782,1944
1784845434.4334,1783,1951
1784845434.4440,1756,1931
1784845434.4443,1759,1941
1784845434.4446,1768,1942
1784845434.4449,1775,1943
1784845434.4453,1747,1939
1784845434.4456,1740,1933
1784845434.4474,1769,1933
1784845434.4492,1781,1894
1784845434.4510,1747,1955
1784845434.4528,1742,1936
1784845434.4546,1464,1935
1784845434.4564,1813,1975
1784845434.4585,1789,1944
1784845434.4605,1760,1937
1784845434.4626,1767,1932
1784845434.4647,1776,1937
1784845434.4667,1766,1908
1784845434.4688,1747,1936
1784845434.4707,1740,1927
1784845434.4727,1773,1930
1784845434.4747,1785,1983
1784845434.4766,1777,1940
1784845434.4786,1776,1952
1784845434.4805,1785,1956
1784845434.4823,1794,1926
1784845434.4841,1775,1924
1784845434.4860,1752,1924
1784845434.4878,1760,1930
1784845434.4896,1774,1912
1784845434.4914,1762,1932
1784845434.4937,1763,1920
1784845434.4960,1784,1924
1784845434.4983,1792,1922
1784845434.5006,1778,1921
1784845434.5029,1763,1927
1784845434.5049,1759,1929
1784845434.5068,1788,1917
1784845434.5087,1793,1898
1784845434.5107,1766,1918
1784845434.5126,1777,1922
1784845434.5145,1775,1919
1784845434.5166,1534,1914
1784845434.5186,1753,1917
1784845434.5206,1764,1921
1784845434.5227,1789,1922
1784845434.5247,1775,1916
1784845434.5268,1747,1925
1784845434.5287,1763,1917
1784845434.5307,1759,1903
1784845434.5327,1762,1903
1784845434.5347,1176,1915
1784845434.5367,1790,1915
1784845434.5386,1793,1897
1784845434.5406,1792,1909
1784845434.5426,1769,1913
1784845434.5446,1766,1920
1784845434.5466,1777,1903
1784845434.5486,1790,1909
1784845434.5506,1764,1931
1784845434.5528,1733,1914
1784845434.5549,1775,1914
1784845434.5571,1840,1906
1784845434.5592,1830,1915
1784845434.5614,1814,1902
1784845434.5720,1796,1911
1784845434.5721,1793,1927
1784845434.5722,1762,1909
1784845434.5723,1737,1906
1784845434.5724,1725,1913
1784845434.5726,1756,1904
1784845434.5746,1772,1900
1784845434.5766,1752,1907
1784845434.5787,1788,1902
1784845434.5807,1810,1892
1784845434.5828,1803,1909
1784845434.5848,1762,1902
1784845434.5868,1754,1904
1784845434.5888,1778,1901
1784845434.5908,1794,1902
1784845434.5928,1775,1907
1784845434.5948,1779,1902
1784845434.5968,1813,1900
1784845434.5988,1816,1903
1784845434.6008,1772,1907
1784845434.6029,1783,1899
1784845434.6049,1776,1899
1784845434.6069,1773,1894
1784845434.6089,1791,1899
1784845434.6106,1779,1893
1784845434.6123,1773,1906
1784845434.6139,1173,1897
1784845434.6156,1864,1892
1784845434.6172,1786,1892
1784845434.6189,1779,1894
1784845434.6213,1851,1901
1784845434.6237,1896,1898
1784845434.6262,1932,1929
1784845434.6286,1860,1912
1784845434.6310,1842,1925
1784845434.6330,1746,1950
1784845434.6349,1805,1927
1784845434.6369,1887,1929
1784845434.6389,1814,1925
1784845434.6408,1844,1911
1784845434.6428,1577,1938
1784845434.6451,1747,1920
1784845434.6475,1814,1920
1784845434.6498,1636,1926
1784845434.6521,1680,1923
1784845434.6545,1755,1924
1784845434.6568,1785,1924
1784845434.6584,1812,1932
1784845434.6599,1650,1921
1784845434.6615,1778,1885
1784845434.6631,1817,1924
1784845434.6646,1615,1923
1784845434.6662,1528,1917
1784845434.6682,1693,1921
1784845434.6703,1618,1914
1784845434.6723,1577,1915
1784845434.6744,1979,2072
1784845434.6764,2242,2264
1784845434.6785,2266,2268
1784845434.6807,2257,2284
1784845434.6828,1772,2281
1784845434.6850,1722,2275
1784845434.6872,1655,2277
1784845434.6894,1991,2265
1784845434.7000,1880,2265
1784845434.7009,1795,2280
1784845434.7019,2089,2259
1784845434.7028,1994,2262
1784845434.7037,1812,2259
1784845434.7047,2210,2257
1784845434.7059,1400,2253
1784845434.7072,1665,2255
1784845434.7085,1691,2253
1784845434.7097,1278,2252
1784845434.7110,1144,2248
1784845434.7123,1072,2247
1784845434.7143,1190,2238
1784845434.7163,1098,2246
1784845434.7184,1243,2236
1784845434.7204,1407,2244
1784845434.7224,1649,2235
1784845434.7245,1732,2237
1784845434.7265,1631,2229
1784845434.7285,1709,2231
1784845434.7305,1726,2222
1784845434.7325,1664,2232
1784845434.7345,1902,2222
1784845434.7365,2052,2229
1784845434.7383,2157,2211
1784845434.7401,1754,2222
1784845434.7418,1624,2223
1784845434.7436,1786,2212
1784845434.7454,1920,2220
1784845434.7471,2004,2214
1784845434.7497,2000,2214
1784845434.7522,2169,2226
1784845434.7547,1658,2212
1784845434.7570,2098,2210
1784845434.7593,2031,2208
1784845434.7616,1998,2203
1784845434.7639,1913,2202
1784845434.7662,1929,2208
1784845434.7685,1769,2164
1784845434.7701,1865,2200
1784845434.7717,1835,2202
1784845434.7733,2008,2196
1784845434.7749,1857,2202
1784845434.7764,1822,2167
1784845434.7780,1954,2193
1784845434.7802,2032,2190
1784845434.7824,1960,2192
1784845434.7846,1888,2189
1784845434.7868,2202,2240
1784845434.7890,1842,2231
1784845434.8002,1500,2227
1784845434.8004,1423,2232
1784845434.8006,1140,2231
1784845434.8008,1137,2222
1784845434.8009,1344,2222
1784845434.8011,1220,2224
1784845434.8034,1317,2219
1784845434.8057,1287,2220
1784845434.8079,1267,2212
1784845434.8102,1302,2211
1784845434.8125,1512,2215
1784845434.8148,1712,2214
1784845434.8164,1837,2200
1784845434.8179,1883,2204
1784845434.8195,1983,2205
1784845434.8211,1853,2201
1784845434.8227,1952,2198
1784845434.8242,2008,2205
1784845434.8263,2046,2208
1784845434.8283,2019,2198
1784845434.8304,1939,2197
1784845434.8324,1889,2187
1784845434.8345,1662,2190
1784845434.8365,1691,2193
1784845434.8383,1854,2225
1784845434.8402,1989,2193
1784845434.8420,1851,2186
1784845434.8438,1919,2183
1784845434.8456,1900,2182
1784845434.8474,1884,2179
1784845434.8497,2178,2198
1784845434.8520,2212,2223
1784845434.8543,2081,2217
1784845434.8566,1996,2250
1784845434.8589,1785,2216
1784845434.8609,1710,2219
1784845434.8629,1748,2212
1784845434.8648,1757,2215
1784845434.8668,1603,2211
1784845434.8688,1511,2208
1784845434.8708,1637,2213
1784845434.8728,1505,2216
1784845434.8748,1633,2209
1784845434.8768,1591,2203
1784845434.8788,1567,2203
1784845434.8808,1649,2209
1784845434.8828,1681,2200
1784845434.8847,1619,2188
1784845434.8867,1378,2202
1784845434.8887,1415,2196
1784845434.8906,1376,2192
1784845434.8926,1508,2190
1784845434.8945,1625,2191
1784845434.8965,1645,2180
1784845434.8985,1609,2192
1784845434.9005,1617,2185
1784845434.9024,1788,2182
1784845434.9044,2035,2181
1784845434.9064,2067,2183
1784845434.9086,2004,2176
1784845434.9107,1913,2177
1784845434.9129,1836,2176
1784845434.9151,1665,2161
1784845434.9173,1915,2189
1784845434.9280,1896,2170
1784845434.9281,1806,2172
1784845434.9282,1805,2163
1784845434.9284,1790,2159
1784845434.9285,1841,2167
1784845434.9286,1751,2162
1784845434.9306,1904,2162
1784845434.9325,1886,2157
1784845434.9344,1956,2164
1784845434.9364,2154,2181
1784845434.9383,2120,2184
1784845434.9403,2194,2185
1784845434.9423,2262,2266
1784845434.9444,2089,2249
1784845434.9465,1799,2263
1784845434.9486,1743,2252
1784845434.9507,1550,2252
1784845434.9528,1532,2254
1784845434.9547,1456,2250
1784845434.9566,1201,2255
1784845434.9586,1194,2252
1784845434.9605,1275,2246
1784845434.9625,1606,2244
1784845434.9644,1662,2245
1784845434.9662,1524,2237
1784845434.9680,1693,2211
1784845434.9698,1620,2230
1784845434.9716,1540,2219
1784845434.9734,1883,2231
1784845434.9752,1775,2226
1784845434.9775,1677,2227
1784845434.9798,1860,2251
1784845434.9820,1762,2227
1784845434.9843,1420,2232
1784845434.9866,1527,2221
1784845434.9887,1684,2193
1784845434.9907,1812,2222
1784845434.9928,1692,2223
1784845434.9949,1766,2215
1784845434.9970,1758,2211
1784845434.9991,1808,2199
1784845435.0010,1895,2194
1784845435.0030,1811,2205
1784845435.0049,1909,2243
1784845435.0069,1954,2208
1784845435.0088,1959,2204
1784845435.0108,1908,2203
1784845435.0128,1914,2199
1784845435.0147,1764,2194
1784845435.0167,1768,2192
1784845435.0187,1785,2200
1784845435.0207,1774,2194
1784845435.0227,1827,2193
1784845435.0246,1814,2121
1784845435.0266,1855,2192
1784845435.0285,2060,2190
1784845435.0305,2075,2184
1784845435.0324,1969,2193
1784845435.0344,1711,2205
1784845435.0366,1602,2201
1784845435.0388,1576,2198
1784845435.0410,1726,2198
1784845435.0432,1793,2198
1784845435.0454,1628,2198
1784845435.0561,1551,2196
1784845435.0563,1549,2187
1784845435.0564,1621,2191
1784845435.0566,1879,2203
1784845435.0568,1759,2460
1784845435.0569,1630,2451
1784845435.0592,1496,2447
1784845435.0614,1353,2445
1784845435.0636,1372,2440
1784845435.0659,1423,2436
1784845435.0681,1639,2433
1784845435.0703,1645,2433
1784845435.0720,1650,2428
1784845435.0737,1682,2437
1784845435.0754,1698,2434
1784845435.0771,1436,2419
1784845435.0788,1611,2414
1784845435.0805,1770,2378
1784845435.0825,1853,2419
1784845435.0845,1891,2448
1784845435.0865,1879,2412
1784845435.0885,1785,2410
1784845435.0905,1837,2404
1784845435.0925,1831,2397
1784845435.0944,1832,2414
1784845435.0962,1798,2471
1784845435.0981,1820,2474
1784845435.0999,1828,2467
1784845435.1018,1760,2462
1784845435.1036,1728,2462
1784845435.1065,1817,2456
1784845435.1094,1811,2424
1784845435.1123,1709,2451
1784845435.1152,1731,2465
1784845435.1181,1729,2450
1784845435.1195,1715,2467
1784845435.1209,1710,2442
1784845435.1223,1704,2442
1784845435.1237,1731,2438
1784845435.1251,1743,2436
1784845435.1265,1704,2433
1784845435.1285,1707,2435
1784845435.1305,1744,2425
1784845435.1325,1770,2426
1784845435.1345,1697,2425
1784845435.1365,1666,2420
1784845435.1385,1710,2417
1784845435.1405,1768,2418
1784845435.1425,1702,2416
1784845435.1446,1691,2390
1784845435.1466,1741,2411
1784845435.1486,1747,2407
1784845435.1506,1762,2417
1784845435.1532,1705,2411
1784845435.1558,1713,2399
1784845435.1585,1744,2401
1784845435.1611,1737,2393
1784845435.1637,1719,2395
1784845435.1663,1675,2392
1784845435.1676,1718,2384
1784845435.1689,1717,2390
1784845435.1702,1660,2385
1784845435.1715,1618,2383
1784845435.1728,1643,2384
1784845435.1842,2206,2380
1784845435.1844,1672,2349
1784845435.1847,1701,2371
1784845435.1849,1744,2376
1784845435.1851,1731,2366
1784845435.1853,1740,2370
1784845435.1872,1720,2360
1784845435.1891,1777,2364
1784845435.1910,1795,2356
1784845435.1929,1765,2362
1784845435.1949,1737,2358
1784845435.1968,1719,2353
1784845435.1989,1782,2349
1784845435.2010,1790,2354
1784845435.2032,1729,2351
1784845435.2053,1739,2345
1784845435.2074,1712,2318
1784845435.2096,1730,2342
1784845435.2113,1713,2342
1784845435.2130,1735,2337
1784845435.2147,1771,2355
1784845435.2165,1733,2345
1784845435.2182,1726,2325
1784845435.2199,1711,2329
1784845435.2218,1736,2335
1784845435.2236,1755,2323
1784845435.2254,1744,2324
1784845435.2272,1710,2327
1784845435.2291,1711,2316
1784845435.2309,1764,2318
1784845435.2333,1726,2319
1784845435.2357,1709,2317
1784845435.2381,1724,2309
1784845435.2405,1742,2316
1784845435.2429,1740,2312
1784845435.2449,1724,2310
1784845435.2469,1742,2314
1784845435.2489,1759,2305
1784845435.2509,1749,2297
1784845435.2530,1735,2307
1784845435.2550,1745,2296
1784845435.2568,1741,2303
1784845435.2587,1729,2292
1784845435.2606,1704,2297
1784845435.2625,1727,2291
1784845435.2644,1754,2291
1784845435.2663,1763,2284
1784845435.2683,1735,2285
1784845435.2703,1718,2282
1784845435.2723,1750,2292
1784845435.2743,1753,2284
1784845435.2764,1695,2258
1784845435.2784,1685,2277
1784845435.2804,1736,2259
1784845435.2824,1739,2266
1784845435.2844,1732,2272
1784845435.2864,1742,2267
1784845435.2884,1753,2256
1784845435.2904,1758,2260
1784845435.2926,1733,2274
1784845435.2947,1686,2258
1784845435.2969,1690,2261
1784845435.2991,1716,2295
1784845435.3013,1703,2253
1784845435.3120,1680,2251
1784845435.3121,1702,2265
1784845435.3122,1743,2251
1784845435.3123,1749,2253
1784845435.3124,1733,2249
1784845435.3125,1747,2245
1784845435.3145,1852,2244
1784845435.3166,1739,2245
1784845435.3186,1722,2227
1784845435.3206,1703,2243
1784845435.3227,1745,2232
1784845435.3247,1765,2217
1784845435.3266,1757,2237
1784845435.3286,1756,2228
1784845435.3305,1754,2232
1784845435.3325,1767,2231
1784845435.3344,1736,2297
1784845435.3364,1685,2294
1784845435.3384,1711,2291
1784845435.3404,1730,2292
1784845435.3424,1727,2288
1784845435.3444,1711,2290
1784845435.3464,1723,2282
1784845435.3484,1744,2313
1784845435.3501,1744,2278
1784845435.3519,1724,2285
1784845435.3536,1724,2295
1784845435.3553,1715,2301
1784845435.3571,1720,2290
1784845435.3588,1711,2289
1784845435.3613,1712,2323
1784845435.3638,1732,2294
1784845435.3662,1742,2270
1784845435.3687,1722,2282
1784845435.3712,1714,2277
1784845435.3731,1733,2281
1784845435.3751,1741,2318
1784845435.3771,1727,2320
1784845435.3790,1684,2331
1784845435.3810,1710,2326
1784845435.3829,1727,2327
1784845435.3849,1724,2316
1784845435.3869,1705,2315
1784845435.3889,1737,2317
1784845435.3908,1743,2314
1784845435.3928,1735,2320
1784845435.3948,1709,2369
1784845435.3967,1692,2369
1784845435.3985,1714,2364
1784845435.4004,1718,2365
1784845435.4022,1713,2357
1784845435.4041,1718,2355
1784845435.4059,1731,2355
1784845435.4080,1727,2352
1784845435.4101,1729,2351
1784845435.4122,1737,2356
1784845435.4143,1767,2389
1784845435.4164,1719,2379
1784845435.4185,1704,2384
1784845435.4206,1698,2381
1784845435.4228,1725,2376
1784845435.4250,1725,2374
1784845435.4272,1717,2373
1784845435.4294,1697,2368
1784845435.4401,1712,2366
1784845435.4403,1743,2331
1784845435.4404,1721,2398
1784845435.4406,1690,2396
1784845435.4408,1704,2387
1784845435.4409,1724,2385
1784845435.4429,1718,2385
1784845435.4450,1717,2339
1784845435.4470,1736,2363
1784845435.4490,1764,2379
1784845435.4510,1767,2378
1784845435.4530,1727,2381
1784845435.4549,1712,2393
1784845435.4568,1716,2393
1784845435.4587,1719,2390
1784845435.4606,1703,2385
1784845435.4624,1707,2385
1784845435.4643,1735,2378
1784845435.4671,1729,2382
1784845435.4699,1703,2375
1784845435.4727,1698,2379
1784845435.4744,1716,2398
1784845435.4761,1737,2417
1784845435.4778,1707,2408
1784845435.4795,1697,2405
1784845435.4812,1727,2403
1784845435.4829,1744,2382
1784845435.4848,1734,2396
1784845435.4868,1700,2398
1784845435.4888,1711,2441
1784845435.4907,1740,2385
1784845435.4927,1745,2392
1784845435.4947,1728,2420
1784845435.4966,1694,2419
1784845435.4984,1714,2414
1784845435.5003,1715,2411
1784845435.5022,1702,2409
1784845435.5041,1709,2410
1784845435.5059,1734,2405
1784845435.5080,1745,2400
1784845435.5101,1729,2397
1784845435.5122,1727,2407
1784845435.5143,1745,2433
1784845435.5164,1708,2426
1784845435.5185,1707,2426
1784845435.5206,1699,2427
1784845435.5226,1719,2420
1784845435.5247,1738,2420
1784845435.5267,1730,2411
1784845435.5288,1724,2412
1784845435.5401,1735,2415
1784845435.5402,1744,2431
1784845435.5404,1719,2432
1784845435.5405,1671,2446
1784845435.5407,1682,2423
1784845435.5408,1695,2426
1784845435.5427,1712,2419
1784845435.5446,1714,2413
1784845435.5465,1725,2413
1784845435.5484,1747,2415
1784845435.5503,1734,2413
1784845435.5522,1714,2421
1784845435.5543,1727,2444
1784845435.5564,1718,2422
1784845435.5585,1722,2419
1784845435.5605,1717,2422
1784845435.5626,1726,2415
1784845435.5647,1749,2403
1784845435.5666,1743,2413
1784845435.5686,1716,2405
1784845435.5706,1697,2404
1784845435.5725,1717,2404
1784845435.5745,1730,2462
1784845435.5765,1685,2458
1784845435.5783,1680,2447
1784845435.5801,1698,2442
1784845435.5818,1728,2460
1784845435.5836,1718,2452
1784845435.5854,1707,2448
1784845435.5872,1712,2442
1784845435.5895,1747,2439
1784845435.5918,1743,2446
1784845435.5941,2439,2488
1784845435.5964,1621,2488
1784845435.5987,1656,2484
1784845435.6007,1681,2474
1784845435.6028,1671,2480
1784845435.6048,1676,2474
1784845435.6069,1698,2474
1784845435.6089,1707,2457
1784845435.6110,1699,2470
1784845435.6129,1715,2459
1784845435.6148,1776,2472
1784845435.6167,1694,2473
1784845435.6185,1682,2470
1784845435.6204,1680,2472
1784845435.6223,1708,2470
1784845435.6244,1724,2467
1784845435.6264,1716,2458
1784845435.6284,1716,2462
1784845435.6304,1742,2463
1784845435.6325,1746,2442
1784845435.6345,2322,2459
1784845435.6364,1644,2461
1784845435.6383,1680,2459
1784845435.6402,1719,2459
1784845435.6422,1743,2455
1784845435.6441,1734,2448
1784845435.6460,1746,2448
1784845435.6483,1744,2451
1784845435.6506,1720,2439
1784845435.6528,1712,2444
1784845435.6551,1707,2476
1784845435.6574,1696,2459
1784845435.6682,1711,2447
1784845435.6684,1701,2458
1784845435.6685,1706,2453
1784845435.6687,1732,2457
1784845435.6688,1745,2442
1784845435.6690,1727,2446
1784845435.6709,1722,2442
1784845435.6728,1741,2437
1784845435.6748,1753,2435
1784845435.6767,1748,2431
1784845435.6787,2042,2481
1784845435.6806,1694,2478
1784845435.6826,1713,2443
1784845435.6845,1699,2467
1784845435.6865,1700,2472
1784845435.6884,1715,2467
1784845435.6903,1739,2461
1784845435.6923,1752,2469
1784845435.6943,1706,2484
1784845435.6964,1689,2487
1784845435.6984,1714,2481
1784845435.7004,1699,2478
1784845435.7025,1688,2475
1784845435.7045,1700,2477
1784845435.7063,1727,2472
1784845435.7081,1732,2472
1784845435.7100,1714,2458
1784845435.7118,1715,2483
1784845435.7136,1724,2456
1784845435.7154,1699,2455
1784845435.7177,1683,2453
1784845435.7200,1679,2451
1784845435.7223,1709,2452
1784845435.7246,1728,2448
1784845435.7269,1728,2451
1784845435.7289,1718,2443
1784845435.7310,1744,2467
1784845435.7330,1769,2441
1784845435.7350,1729,2478
1784845435.7370,1669,2474
1784845435.7390,1685,2462
1784845435.7417,1716,2433
1784845435.7443,1728,2464
1784845435.7470,1715,2465
1784845435.7496,1729,2466
1784845435.7522,1744,2453
1784845435.7549,1769,2486
1784845435.7561,1753,2493
1784845435.7573,1756,2470
1784845435.7584,1724,2449
1784845435.7596,1724,2445
1784845435.7608,1685,2439
1784845435.7620,1677,2424
1784845435.7641,1695,2427
1784845435.7661,1714,2430
1784845435.7682,1705,2431
1784845435.7703,1709,2427
1784845435.7723,1728,2425
1784845435.7744,2217,2425
1784845435.7766,1694,2418
1784845435.7788,1682,2418
1784845435.7810,1725,2422
1784845435.7832,1741,2421
1784845435.7854,1732,2415
1784845435.7961,1716,2411
1784845435.7963,1722,2406
1784845435.7965,1735,2408
1784845435.7967,1743,2409
1784845435.7969,1730,2401
1784845435.7971,1707,2397
1784845435.7990,1741,2398
1784845435.8009,1717,2395
1784845435.8028,1713,2392
1784845435.8047,1731,2408
1784845435.8066,1753,2381
1784845435.8085,1745,2410
1784845435.8106,1724,2373
1784845435.8126,1713,2395
1784845435.8147,1721,2386
1784845435.8167,1704,2383
1784845435.8187,1687,2377
1784845435.8208,1688,2348
1784845435.8227,1711,2367
1784845435.8247,1732,2369
1784845435.8267,1733,2370
1784845435.8286,1726,2386
1784845435.8306,1740,2371
1784845435.8325,1763,2367
1784845435.8343,1732,2389
1784845435.8361,1696,2360
1784845435.8380,1714,2349
1784845435.8398,1732,2340
1784845435.8416,1748,2353
1784845435.8434,1704,2352
1784845435.8456,1735,2347
1784845435.8478,1775,2343
1784845435.8500,1773,2348
1784845435.8522,1730,2338
1784845435.8545,1946,2336
1784845435.8566,1713,2335
1784845435.8587,1725,2334
1784845435.8608,1713,2339
1784845435.8629,1720,2329
1784845435.8650,1745,2344
1784845435.8671,1757,2324
1784845435.8690,1742,2331
1784845435.8709,1729,2323
1784845435.8728,1734,2358
1784845435.8747,1775,2318
1784845435.8766,1716,2320
1784845435.8785,1704,2333
1784845435.8805,1718,2312
1784845435.8825,1729,2312
1784845435.8845,1731,2310
1784845435.8865,1716,2306
1784845435.8885,1734,2308
1784845435.8905,1752,2302
1784845435.8924,1751,2301
1784845435.8943,1736,2298
1784845435.8962,1725,2297
1784845435.8981,1744,2335
1784845435.9000,1743,2298
1784845435.9019,1728,2289
1784845435.9043,1734,2298
1784845435.9066,1751,2267
1784845435.9089,1769,2305
1784845435.9113,1747,2265
1784845435.9136,1742,2290
1784845435.9242,1754,2285
1784845435.9244,1818,2291
1784845435.9245,1729,2279
1784845435.9247,1713,2275
1784845435.9248,1739,2275
1784845435.9250,1753,2273
1784845435.9269,1743,2267
1784845435.9289,1729,2272
1784845435.9309,1753,2271
1784845435.9328,1766,2263
1784845435.9348,1746,2262
1784845435.9368,1626,2258
1784845435.9387,1783,2254
1784845435.9406,1790,2258
1784845435.9425,1777,2236
1784845435.9444,1745,2273
1784845435.9463,1735,2253
1784845435.9482,1739,2257
1784845435.9503,1727,2254
1784845435.9523,1708,2253
1784845435.9544,1732,2211
1784845435.9564,1757,2248
1784845435.9585,1778,2243
1784845435.9605,1755,2247
1784845435.9623,1756,2251
1784845435.9641,1798,2240
1784845435.9659,1772,2229
1784845435.9677,1750,2235
1784845435.9695,1743,2233
1784845435.9713,1751,2233
1784845435.9736,1776,2234
1784845435.9760,1776,2229
1784845435.9783,1763,2224
1784845435.9806,1778,2224
1784845435.9830,1800,2219
1784845435.9849,1779,2240
1784845435.9868,1732,2218
1784845435.9887,1745,2221
1784845435.9906,1761,2220
1784845435.9925,1771,2223
1784845435.9944,1762,2213
1784845435.9965,1787,2219
1784845435.9986,1802,2212
1784845436.0006,1798,2212
1784845436.0027,1764,2214
1784845436.0047,1755,2207
1784845436.0068,1775,2206
1784845436.0088,1777,2200
1784845436.0108,1745,2200
1784845436.0128,1745,2198
1784845436.0148,1782,2193
1784845436.0168,1792,2193
1784845436.0188,1774,2226
1784845436.0207,1760,2192
1784845436.0227,1775,2183
1784845436.0247,1776,2190
1784845436.0267,1759,2192
1784845436.0286,1745,2192
1784845436.0306,1760,2190
1784845436.0329,1765,2191
1784845436.0353,1784,2197
1784845436.0376,1794,2178
1784845436.0399,1803,2183
1784845436.0423,1821,2183
1784845436.0520,1799,2179
1784845436.0521,1767,2181
1784845436.0523,1756,2176
1784845436.0524,1755,2172
1784845436.0525,1751,2167
1784845436.0526,1716,2173
1784845436.0547,1755,2165
1784845436.0567,1808,2170
1784845436.0587,1807,2198
1784845436.0607,1793,2162
1784845436.0628,1790,2166
1784845436.0648,1793,2162
1784845436.0668,1781,2136
1784845436.0687,1758,2163
1784845436.0707,1748,2158
1784845436.0727,1768,2171
1784845436.0747,1813,2158
1784845436.0767,1815,2160
1784845436.0789,1794,2155
1784845436.0812,1793,2153
1784845436.0835,1791,2150
1784845436.0857,1780,2146
1784845436.0880,1752,2146
1784845436.0902,1737,2146
1784845436.0917,1761,2145
1784845436.0931,1763,2141
1784845436.0945,1531,2133
1784845436.0959,1789,2134
1784845436.0974,1802,2167
1784845436.0988,1835,2140
1784845436.1012,1793,2137
1784845436.1037,1780,2119
1784845436.1061,1791,2139
1784845436.1085,1785,2132
1784845436.1110,1762,2126
1784845436.1130,1745,2130
1784845436.1150,1793,2125
1784845436.1170,1826,2121
1784845436.1190,1797,2132
1784845436.1210,1784,2128
1784845436.1230,1799,2126
1784845436.1255,1804,2127
1784845436.1280,1784,2122
1784845436.1305,1752,2123
1784845436.1330,1772,2120
1784845436.1355,1765,2127
1784845436.1380,1791,2122
1784845436.1393,1792,2116
1784845436.1406,1800,2112
1784845436.1420,1811,2118
1784845436.1433,1789,2115
1784845436.1446,1758,2111
1784845436.1459,1762,2117
1784845436.1480,1770,2109
1784845436.1501,1767,2116
1784845436.1522,1745,2114
1784845436.1543,855,2110
1784845436.1564,1907,2107
1784845436.1585,1887,2134
1784845436.1603,1864,2097
1784845436.1621,1843,2108
1784845436.1639,1836,2102
1784845436.1657,1818,2098
1784845436.1676,1774,2111
1784845436.1694,1758,2095
1784845436.1726,1773,2094
1784845436.1759,1791,2092
1784845436.1792,1693,2093
1784845436.1824,1807,2109
1784845436.1857,1815,2089
1784845436.1868,1830,2091
1784845436.1880,1802,2145
1784845436.1891,1775,2087
1784845436.1903,1784,2086
1784845436.1914,1780,2084
1784845436.1925,1767,2067
1784845436.1945,1778,2079
1784845436.1965,1802,2083
1784845436.1985,1808,2081
1784845436.2004,1808,2083
1784845436.2024,1780,2080
1784845436.2044,1776,2081
1784845436.2064,1783,2074
1784845436.2084,1776,2073
1784845436.2104,1750,2079
1784845436.2124,1743,2065
1784845436.2144,1746,2068
1784845436.2164,1740,2079
1784845436.2186,1760,2071
1784845436.2208,1774,2098
1784845436.2229,1800,2064
1784845436.2251,1796,2066
1784845436.2273,1808,2067
1784845436.2294,1764,2064
1784845436.2313,1772,2068
1784845436.2332,1780,2064
1784845436.2350,1776,2059
1784845436.2369,1810,2068
1784845436.2388,1801,2062
1784845436.2503,1804,2063
1784845436.2505,1795,2052
1784845436.2506,1763,2051
1784845436.2507,1765,2054
1784845436.2509,1775,2054
1784845436.2510,1776,2065
1784845436.2530,1763,2063
1784845436.2549,1774,2058
1784845436.2569,1817,2048
1784845436.2589,1810,2049
1784845436.2608,1799,2048
1784845436.2628,1780,2050
1784845436.2648,1788,2052
1784845436.2667,1787,2042
1784845436.2687,1765,2043
1784845436.2707,1750,2040
1784845436.2727,1760,2037
1784845436.2747,1774,2041
1784845436.2765,1790,2038
1784845436.2784,1777,2028
1784845436.2803,1811,2031
1784845436.2822,1804,2034
1784845436.2841,1785,2030
1784845436.2859,1761,2033
1784845436.2878,1759,2040
1784845436.2898,1778,2025
1784845436.2917,1769,2040
1784845436.2936,1756,2015
1784845436.2955,1793,2026
1784845436.2974,1793,2028
1784845436.2997,1794,2027
1784845436.3020,1783,2027
1784845436.3044,1764,2025
1784845436.3067,1776,2029
1784845436.3090,1781,2020
1784845436.3110,1749,2014
1784845436.3130,1743,2029
1784845436.3150,1789,2029
1784845436.3170,1812,2022
1784845436.3191,1775,2021
1784845436.3211,1753,2019
1784845436.3230,1776,2017
1784845436.3249,1792,2018
1784845436.3267,1787,2016
1784845436.3286,1780,2013
1784845436.3305,1770,2015
1784845436.3324,1784,2004
1784845436.3344,1656,2011
1784845436.3365,1797,2011
1784845436.3385,1797,1975
1784845436.3405,1807,2003
1784845436.3425,1788,2004
1784845436.3445,1752,2007
1784845436.3465,1749,1999
1784845436.3484,1765,2006
1784845436.3504,1760,2005
1784845436.3523,1749,2008
1784845436.3543,1778,2003
1784845436.3562,1822,2006
1784845436.3585,1834,2006
1784845436.3607,1782,2008
1784845436.3629,1753,2024
1784845436.3652,1767,1999
1784845436.3674,1775,1997
1784845436.3781,1762,1997
1784845436.3783,1745,1998
1784845436.3784,1759,2003
1784845436.3786,1815,2002
1784845436.3788,1809,1996
1784845436.3790,1800,1991
1784845436.3811,1804,1992
1784845436.3833,1806,1990
1784845436.3854,1779,1993
1784845436.3876,1743,1986
1784845436.3897,1746,1991
1784845436.3919,1760,2029
1784845436.3936,1762,1986
1784845436.3954,1663,1990
1784845436.3971,1792,1985
1784845436.3989,1812,1988
1784845436.4006,1812,1992
1784845436.4024,1786,1983
1784845436.4044,1747,1986
1784845436.4064,1760,1983
1784845436.4084,1754,1975
1784845436.4105,1749,1983
1784845436.4125,1756,1988
1784845436.4145,1791,1974
1784845436.4163,1821,1980
1784845436.4181,1801,1971
1784845436.4200,1782,1980
1784845436.4218,1790,1978
1784845436.4236,1801,1969
1784845436.4254,1800,1975
1784845436.4282,1749,1974
1784845436.4310,1765,1977
1784845436.4338,1773,1976
1784845436.4366,1789,1967
1784845436.4394,1789,1979
1784845436.4409,1791,1972
1784845436.4425,1787,1969
1784845436.4440,1784,2009
1784845436.4455,1769,1967
1784845436.4470,1770,1967
1784845436.4485,1783,1967
1784845436.4506,1786,1965
1784845436.4526,1766,1964
1784845436.4546,1749,1976
1784845436.4567,1858,1965
1784845436.4587,1838,1965
1784845436.4608,1793,1973
1784845436.4627,1787,1958
1784845436.4647,1794,1960
1784845436.4666,1805,1961
1784845436.4685,1777,1962
1784845436.4705,1745,1954
1784845436.4724,1743,1962
1784845436.4749,1794,1955
1784845436.4774,1798,1950
1784845436.4799,1776,1956
1784845436.4824,1784,1953
1784845436.4850,1773,1951
1784845436.4875,1785,1946
1784845436.4890,1763,1960
1784845436.4904,1765,1959
1784845436.4919,1784,1959
1784845436.4934,1773,1967
1784845436.4949,1777,1942
1784845436.5062,1799,1951
1784845436.5063,1812,1941
1784845436.5065,1807,1951
1784845436.5066,1784,1943
1784845436.5068,1770,1935
1784845436.5069,1780,1945
1784845436.5089,1785,1943
1784845436.5109,1755,1944
1784845436.5129,1750,1954
1784845436.5148,1725,1944
1784845436.5168,1835,1941
1784845436.5188,1805,1927
1784845436.5213,1780,1946
1784845436.5237,1788,1940
1784845436.5262,1783,1939
1784845436.5287,1780,1940
1784845436.5311,1767,1947
1784845436.5336,1787,1937
1784845436.5350,1780,1951
1784845436.5364,1783,1935
1784845436.5379,1785,1945
1784845436.5393,1790,1941
1784845436.5407,1803,1926
1784845436.5421,1818,1935
1784845436.5440,1778,1934
1784845436.5459,1768,1892
1784845436.5478,1768,1934
1784845436.5497,1793,1935
1784845436.5515,1762,1942
1784845436.5534,1776,1931
1784845436.5558,1814,1947
1784845436.5581,1816,1928
1784845436.5604,1792,1933
1784845436.5627,1769,1919
1784845436.5650,1782,1925
1784845436.5670,1787,1928
1784845436.5690,1770,1926
1784845436.5710,1756,1931
1784845436.5730,1759,1931
1784845436.5749,1779,1921
1784845436.5769,1818,1924
1784845436.5788,1793,1920
1784845436.5807,1792,1929
1784845436.5826,1796,1925
1784845436.5845,1786,1927
1784845436.5863,1764,1921
1784845436.5882,1759,1923
1784845436.5903,1782,1920
1784845436.5923,1775,1927
1784845436.5944,1794,1912
1784845436.5964,1825,1921
1784845436.5985,1839,1934
1784845436.6005,1840,1919
1784845436.6024,1808,1918
1784845436.6043,1786,1920
1784845436.6062,1779,1913
1784845436.6081,1772,1916
1784845436.6100,1734,1903
1784845436.6119,1714,1913
1784845436.6142,1773,1917
1784845436.6165,1808,1915
1784845436.6187,1792,1908
1784845436.6210,1778,1912
1784845436.6232,1791,1918
1784845436.6340,1808,1906
1784845436.6341,1791,1915
1784845436.6342,1748,1908
1784845436.6343,1773,1902
1784845436.6344,1784,1908
1784845436.6345,1778,1908
1784845436.6366,1189,1958
1784845436.6386,1822,1914
1784845436.6407,1830,1899
1784845436.6428,1807,1904
1784845436.6448,1787,1898
1784845436.6469,1795,1912
1784845436.6488,1809,1901
1784845436.6508,1780,1846
1784845436.6528,1767,1921
1784845436.6547,1792,1907
1784845436.6567,1831,1898
1784845436.6586,1827,1903
1784845436.6606,1796,1900
1784845436.6626,1774,1904
1784845436.6645,1781,1900
1784845436.6665,1784,1903
1784845436.6685,1776,1904
1784845436.6704,1759,1902
1784845436.6722,1765,1911
1784845436.6739,1817,1899
1784845436.6756,1842,1904
1784845436.6774,1808,1900
1784845436.6791,1805,1898
1784845436.6808,1805,1888
1784845436.6832,1780,1890
1784845436.6855,1754,1901
1784845436.6878,1754,1902
1784845436.6901,1772,1900
1784845436.6924,1774,1900
1784845436.6944,1751,1896
1784845436.6965,690,1893
1784845436.6985,1846,1893
1784845436.7005,1811,1907
1784845436.7026,1809,1896
1784845436.7046,1805,1893
1784845436.7066,1818,1888
1784845436.7086,1812,1888
1784845436.7106,1772,1890
1784845436.7126,1744,1893
1784845436.7146,1813,1887
1784845436.7167,1865,1923
1784845436.7186,1829,1914
1784845436.7205,1798,1916
1784845436.7224,1796,1907
1784845436.7244,1805,1911
1784845436.7263,1789,1910
1784845436.7282,1757,1916
1784845436.7303,1771,1904
1784845436.7323,1800,1897
1784845436.7344,1794,1900
1784845436.7364,1822,1906
1784845436.7385,1807,1906
1784845436.7405,1811,1908
1784845436.7424,1803,1903
1784845436.7442,1775,1907
1784845436.7461,1776,1908
1784845436.7479,1791,1904
1784845436.7498,1792,1900
1784845436.7516,1758,1911
1784845436.7539,1785,1905
1784845436.7562,1831,1904
1784845436.7585,1835,1903
1784845436.7608,1808,1910
1784845436.7631,1780,1901
1784845436.7650,1791,1895
1784845436.7670,1786,1908
1784845436.7690,1766,1932
1784845436.7710,1743,1897
1784845436.7729,1745,1901
1784845436.7749,951,1900
1784845436.7775,1907,1918
1784845436.7801,1799,1912
1784845436.7828,1819,1937
1784845436.7854,1840,1915
1784845436.7880,1823,1915
1784845436.7906,1779,1912
1784845436.7919,1754,1919
1784845436.7931,1766,1919
1784845436.7944,1769,1913
1784845436.7957,1738,1912
1784845436.7970,826,1908
1784845436.7983,1848,1907
1784845436.8003,1826,1899
1784845436.8024,1806,1911
1784845436.8044,1786,1908
1784845436.8065,1789,1905
1784845436.8085,1796,1903
1784845436.8106,1766,1902
1784845436.8126,1767,1912
1784845436.8145,1799,1905
1784845436.8165,1865,1925
1784845436.8185,1838,1923
1784845436.8205,1800,1877
1784845436.8225,1791,1920
1784845436.8248,1807,1915
1784845436.8271,1790,1915
1784845436.8294,1761,1915
1784845436.8317,1771,1913
1784845436.8340,1777,1924
1784845436.8440,1812,1913
1784845436.8440,1827,1913
1784845436.8441,1818,1914
1784845436.8442,1819,1912
1784845436.8443,1825,1910
1784845436.8444,1803,1905
1784845436.8465,1791,1908
1784845436.8486,1794,1912
1784845436.8506,1772,1909
1784845436.8527,1721,1921
1784845436.8547,1738,1900
1784845436.8568,1820,1908
1784845436.8588,1859,1913
1784845436.8608,1832,1906
1784845436.8628,1804,1904
1784845436.8647,1793,1905
1784845436.8667,1783,1905
1784845436.8687,1763,1907
1784845436.8707,1749,1903
1784845436.8726,1753,1903
1784845436.8746,1533,1919
1784845436.8765,1895,1907
1784845436.8785,1815,1903
1784845436.8804,1810,1907
1784845436.8822,1813,1902
1784845436.8839,1806,1904
1784845436.8856,1781,1898
1784845436.8874,1785,1905
1784845436.8891,1791,1900
1784845436.8908,1778,1909
1784845436.8933,1793,1900
1784845436.8958,1825,1872
1784845436.8982,1829,1894
1784845436.9007,1834,1890
1784845436.9031,1804,1898
1784845436.9051,1776,1882
1784845436.9071,1785,1901
1784845436.9090,1795,1894
1784845436.9110,1764,1891
1784845436.9129,1742,1900
1784845436.9149,1581,1938
1784845436.9168,1840,1901
1784845436.9188,1813,1902
1784845436.9207,1800,1902
1784845436.9226,1801,1898
1784845436.9246,1801,1901
1784845436.9265,1783,1900
1784845436.9285,1758,1897
1784845436.9304,1775,1903
1784845436.9324,1775,1899
1784845436.9344,920,1899
1784845436.9363,1837,1897
1784845436.9383,1821,1896
1784845436.9403,1814,1896
1784845436.9423,1804,1894
1784845436.9444,1777,1892
1784845436.9464,1770,1891
1784845436.9484,1782,1885
1784845436.9505,1792,1891
1784845436.9522,1781,1893
1784845436.9540,1785,1895
1784845436.9558,1833,1893
1784845436.9576,1837,1894
1784845436.9594,1806,1890
1784845436.9612,1783,1889
1784845436.9635,1789,1890
1784845436.9658,1794,1886
1784845436.9681,1780,1890
1784845436.9705,1744,1883
1784845436.9728,1757,1897
1784845436.9747,1816,1909
1784845436.9767,1829,1898
1784845436.9787,1803,1897
1784845436.9806,1812,1920
1784845436.9826,1808,1889
1784845436.9845,1792,1877
1784845436.9865,1756,1902
1784845436.9886,1732,1900
1784845436.9906,1757,1893
1784845436.9926,1781,1902
1784845436.9946,1807,1895
1784845436.9967,1830,1889
1784845436.9987,1833,1881
1784845437.0006,1841,1898
1784845437.0026,1803,1886
1784845437.0046,1790,1887
1784845437.0066,1794,1886
1784845437.0086,1778,1890
1784845437.0106,1752,1884
1784845437.0125,1743,1903
1784845437.0145,1797,1888
1784845437.0165,1836,1910
1784845437.0185,1809,1902
1784845437.0205,1780,1885
1784845437.0225,1784,1880
1784845437.0246,1795,1874
1784845437.0267,1776,1880
1784845437.0287,1750,1883
1784845437.0308,1759,1889
1784845437.0422,1763,1887
1784845437.0424,1794,1881
1784845437.0425,1813,1879
1784845437.0427,1805,1882
1784845437.0429,1809,1875
1784845437.0431,1811,1876
1784845437.0449,1771,1885
1784845437.0468,1766,1881
1784845437.0487,1781,1880
1784845437.0506,1777,1882
1784845437.0524,1763,1879
1784845437.0543,1771,1875
1784845437.0564,1831,1874
1784845437.0585,1851,1875
1784845437.0606,1806,1878
1784845437.0627,1781,1872
1784845437.0648,1780,1873
1784845437.0669,1773,1874
1784845437.0687,1772,1870
1784845437.0706,1759,1872
1784845437.0724,1769,1878
1784845437.0743,1837,1880
1784845437.0761,1841,1915
1784845437.0780,1800,1904
1784845437.0798,1800,1905
1784845437.0816,1814,1903
1784845437.0834,1789,1904
1784845437.0852,1770,1905
1784845437.0870,1762,1903
1784845437.0888,1770,1904
1784845437.0911,1757,1901
1784845437.0934,1766,1902
1784845437.0957,1788,1904
1784845437.0981,1817,1904
1784845437.1004,1836,1890
1784845437.1024,1805,1899
1784845437.1044,1801,1963
1784845437.1064,1787,1903
1784845437.1084,1791,1901
1784845437.1104,1773,1901
1784845437.1124,1744,1909
1784845437.1146,1769,1891
1784845437.1168,1829,1901
1784845437.1190,1824,1897
1784845437.1212,1788,1890
1784845437.1234,1788,1896
1784845437.1256,1798,1968
1784845437.1273,1787,1893
1784845437.1291,1765,1898
1784845437.1308,1766,1900
1784845437.1326,1782,1893
1784845437.1343,1773,1878
1784845437.1361,1044,1897
1784845437.1380,1821,1892
1784845437.1400,1824,1895
1784845437.1420,1822,1892
1784845437.1439,1785,1886
1784845437.1459,1751,1882
1784845437.1479,1775,1873
1784845437.1500,1780,1887
1784845437.1522,1765,1890
1784845437.1544,1781,1891
1784845437.1566,1840,1887
1784845437.1588,1844,1883
1784845437.1700,1818,1890
1784845437.1701,1791,1884
1784845437.1703,1783,1883
1784845437.1704,1795,1885
1784845437.1705,1778,1882
1784845437.1706,1760,1889
1784845437.1728,1753,1881
1784845437.1750,946,1883
1784845437.1772,1835,1883
1784845437.1794,1798,1889
1784845437.1816,1815,1882
1784845437.1838,1831,1885
1784845437.1856,1808,1879
1784845437.1873,1777,1871
1784845437.1890,1758,1882
1784845437.1907,1770,1878
1784845437.1925,1763,1879
1784845437.1942,1780,1883
1784845437.1961,1818,1878
1784845437.1981,1840,1872
1784845437.2001,1828,1864
1784845437.2020,1792,1879
1784845437.2040,1770,1878
1784845437.2059,1781,1874
1784845437.2079,1792,1875
1784845437.2099,1765,1874
1784845437.2119,1744,1875
1784845437.2139,1568,1879
1784845437.2159,1840,1886
1784845437.2178,1822,1887
1784845437.2200,1804,1882
1784845437.2222,1802,1883
1784845437.2244,1804,1876
1784845437.2265,1788,1884
1784845437.2287,1743,1885
1784845437.2399,1742,1884
1784845437.2400,1758,1883
1784845437.2401,893,1876
1784845437.2402,1807,1873
1784845437.2403,1784,1878
1784845437.2404,1804,1880
1784845437.2426,1813,1850
1784845437.2448,1798,1881
1784845437.2469,1776,1887
1784845437.2491,1788,1882
1784845437.2513,1785,1883
1784845437.2534,1755,1884
1784845437.2552,1789,1878
1784845437.2570,1837,1868
1784845437.2589,1839,1877
1784845437.2607,1810,1878
1784845437.2625,1788,1880
1784845437.2643,1781,1866
1784845437.2662,1794,1872
1784845437.2682,1757,1871
1784845437.2702,1747,1878
1784845437.2721,1749,1882
1784845437.2741,1815,1875
1784845437.2761,1841,1897
1784845437.2780,1810,1900
1784845437.2800,1794,1896
1784845437.2820,1799,1895
1784845437.2839,1776,1893
1784845437.2859,1766,1893
1784845437.2879,1759,1896
1784845437.2900,1775,1890
1784845437.2922,1776,1902
1784845437.2944,1788,1893
1784845437.2965,1796,1890
1784845437.2987,1814,1889
1784845437.3110,1818,1906
1784845437.3122,1789,1893
1784845437.3134,1766,1900
1784845437.3145,1775,1894
1784845437.3157,1778,1887
1784845437.3169,1760,1891
1784845437.3178,1744,1887
1784845437.3187,1790,1884
1784845437.3195,1828,1888
1784845437.3204,1809,1888
1784845437.3213,1785,1889
1784845437.3221,1779,1879
1784845437.3241,1792,1887
1784845437.3261,1776,1884
1784845437.3282,1755,1881
1784845437.3302,1752,1884
1784845437.3322,1776,1890
1784845437.3342,1800,1912
1784845437.3361,1809,1883
1784845437.3381,1808,1886
1784845437.3400,1817,1882
1784845437.3420,1811,1885
1784845437.3439,1774,1879
1784845437.3459,1750,1880
1784845437.3477,1765,1879
1784845437.3495,1781,1877
1784845437.3513,1757,1881
1784845437.3531,1762,1882
1784845437.3550,1791,1877
1784845437.3568,1808,1882
1784845437.3591,1814,1877
1784845437.3614,1781,1880
1784845437.3638,1764,1873
1784845437.3661,1775,1875
1784845437.3684,1775,1875
1784845437.3704,1755,1876
1784845437.3725,1766,1887
1784845437.3745,1819,1872
1784845437.3765,1833,1898
1784845437.3786,1789,1896
1784845437.3806,1788,1867
1784845437.3826,1813,1892
1784845437.3847,1816,1883
1784845437.3867,1774,1892
1784845437.3888,1757,1890
1784845437.3908,1755,1878
1784845437.3928,1767,1897
1784845437.3947,1784,1893
1784845437.3966,1793,1893
1784845437.3984,1810,1889
1784845437.4003,1812,1888
1784845437.4022,1787,1909
1784845437.4041,1768,1887
1784845437.4061,1778,1892
1784845437.4082,1779,1892
1784845437.4102,1764,1885
1784845437.4123,1741,1885
1784845437.4143,933,1882
1784845437.4164,1843,1892
1784845437.4182,1811,1883
1784845437.4200,1774,1881
1784845437.4218,1774,1886
1784845437.4237,1799,1879
1784845437.4255,1818,1872
1784845437.4273,1781,1879
1784845437.4296,1774,1838
1784845437.4318,1768,1878
1784845437.4341,1250,1889
1784845437.4363,1792,1872
1784845437.4386,1790,1885
1784845437.4406,1810,1850
1784845437.4427,1809,1875
1784845437.4448,1776,1876
1784845437.4469,1758,1876
1784845437.4490,1770,1874
1784845437.4511,1773,1862
1784845437.4530,1750,1871
1784845437.4550,1769,1873
1784845437.4569,1804,1875
1784845437.4589,1815,1873
1784845437.4608,1789,1873
1784845437.4628,1775,1872
1784845437.4648,1777,1873
1784845437.4668,1792,1874
1784845437.4689,1782,1870
1784845437.4709,1757,1872
1784845437.4729,1761,1863
1784845437.4749,1037,1869
1784845437.4768,1840,1861
1784845437.4787,1800,1876
1784845437.4806,1811,1877
1784845437.4825,1806,1880
1784845437.4844,1799,1879
1784845437.4863,1773,1874
1784845437.4885,1746,1873
1784845437.4907,1774,1867
1784845437.4930,1777,1878
1784845437.4952,1786,1871
1784845437.4974,1792,1873
1784845437.5081,1808,1897
1784845437.5083,1807,1861
1784845437.5085,1776,1870
1784845437.5086,1744,1864
1784845437.5088,1749,1871
1784845437.5090,1762,1873
1784845437.5115,1782,1833
1784845437.5141,1752,1876
1784845437.5167,1797,1870
1784845437.5192,1828,1870
1784845437.5218,1797,1834
1784845437.5244,1775,1863
1784845437.5257,1774,1856
1784845437.5270,1792,1868
1784845437.5283,1776,1875
1784845437.5296,1747,1867
1784845437.5309,1749,1868
1784845437.5323,1767,1859
1784845437.5343,1737,1863
1784845437.5364,1802,1869
1784845437.5384,1789,1901
1784845437.5404,1802,1860
1784845437.5425,1804,1856
1784845437.5445,1770,1868
1784845437.5463,1753,1873
1784845437.5481,1770,1864
1784845437.5499,1781,1870
1784845437.5517,1766,1873
1784845437.5535,1765,1863
1784845437.5553,1787,1861
1784845437.5576,1821,1863
1784845437.5599,1789,1860
1784845437.5623,1770,1862
1784845437.5646,1775,1859
1784845437.5669,1776,1856
1784845437.5689,1776,1860
1784845437.5709,1746,1861
1784845437.5730,1761,1868
1784845437.5750,1813,1862
1784845437.5770,1817,1869
1784845437.5790,1787,1869
1784845437.5809,1775,1865
1784845437.5828,1816,1867
1784845437.5847,1812,1865
1784845437.5866,1775,1866
1784845437.5885,1742,1867
1784845437.5904,1759,1868
1784845437.5925,1817,1863
1784845437.5945,1786,1877
1784845437.5965,1721,1860
1784845437.5985,1775,1867
1784845437.6005,1755,1855
1784845437.6025,1760,1861
1784845437.6045,1699,1864
1784845437.6064,1752,1864
1784845437.6084,1758,1862
1784845437.6103,1728,1859
1784845437.6123,1749,1864
1784845437.6143,1841,1883
1784845437.6165,1830,1915
1784845437.6187,1753,1916
1784845437.6209,1771,1908
1784845437.6231,1890,1910
1784845437.6254,1825,1912
1784845437.6359,1768,1878
1784845437.6360,1776,1908
1784845437.6361,1848,1868
1784845437.6362,1828,1918
1784845437.6363,2009,2014
1784845437.6364,1966,2034
1784845437.6385,1842,2032
1784845437.6406,1824,2029
1784845437.6426,1623,2031
1784845437.6447,1619,2026
1784845437.6467,1544,2016
1784845437.6488,1563,2019
1784845437.6508,1572,2034
1784845437.6528,1565,2035
1784845437.6548,1696,2024
1784845437.6568,1890,2026
1784845437.6588,1933,2026
1784845437.6608,2074,2086
1784845437.6627,2095,2106
1784845437.6647,1884,2110
1784845437.6666,1813,2097
1784845437.6686,1524,2106
1784845437.6705,1351,2110
1784845437.6725,1637,2100
1784845437.6742,1487,2071
1784845437.6759,1447,2064
1784845437.6777,1503,2124
1784845437.6794,1657,2107
1784845437.6811,1788,2091
1784845437.6828,1949,2107
1784845437.6852,1997,2082
1784845437.6876,1846,2055
1784845437.6899,1742,2088
1784845437.6923,1604,2074
1784845437.6947,1659,2099
1784845437.6967,1875,2086
1784845437.6988,1900,2086
1784845437.7009,1865,2090
1784845437.7029,1800,2077
1784845437.7050,1912,2117
1784845437.7070,1954,2069
1784845437.7090,1911,2084
1784845437.7109,1872,2075
1784845437.7128,1949,2080
1784845437.7148,2018,2078
1784845437.7167,1885,2072
1784845437.7187,1859,2071
1784845437.7206,1784,2070
1784845437.7225,2200,2197
1784845437.7244,2100,2195
1784845437.7264,1829,2190
1784845437.7283,1521,2190
1784845437.7302,1577,2189
1784845437.7323,1279,2193
1784845437.7344,1267,2188
1784845437.7364,1281,2186
1784845437.7385,1470,2183
1784845437.7405,1494,2180
1784845437.7426,1555,2176
1784845437.7447,1529,2176
1784845437.7467,1584,2237
1784845437.7488,1550,2174
1784845437.7508,1633,2173
1784845437.7528,1607,2217
1784845437.7548,1699,2177
1784845437.7568,1680,2148
1784845437.7588,1757,2169
1784845437.7608,1986,2164
1784845437.7627,1974,2157
1784845437.7646,1780,2162
1784845437.7666,1898,2162
1784845437.7685,1841,2142
1784845437.7705,1709,2155
1784845437.7724,1749,2166
1784845437.7741,1902,2156
1784845437.7759,1961,2155
1784845437.7776,2118,2153
1784845437.7794,1857,2163
1784845437.7811,1975,2154
1784845437.7829,1797,2148
1784845437.7853,1888,2146
1784845437.7878,1917,2145
1784845437.7903,1880,2143
1784845437.7927,1816,2153
1784845437.7952,1776,2139
1784845437.7972,1702,2136
1784845437.7991,1898,2141
1784845437.8011,1933,2138
1784845437.8031,1821,2132
1784845437.8050,1782,2132
1784845437.8070,1659,2134
1784845437.8090,1703,2128
1784845437.8109,1903,2185
1784845437.8129,1772,2135
1784845437.8149,1680,2131
1784845437.8169,1449,2104
1784845437.8188,1302,2122
1784845437.8207,1133,2127
1784845437.8226,1158,2118
1784845437.8245,1318,2122
1784845437.8264,1587,2120
1784845437.8283,1627,2122
1784845437.8302,1653,2113
1784845437.8322,1740,2116
1784845437.8343,2004,2108
1784845437.8363,1756,2112
1784845437.8384,1646,2112
1784845437.8405,1786,2110
1784845437.8425,1556,2110
1784845437.8446,1591,2111
1784845437.8467,1698,2107
1784845437.8487,1765,2104
1784845437.8508,1844,2107
1784845437.8529,1841,2115
1784845437.8642,1874,2179
1784845437.8644,1874,2175
1784845437.8646,1896,2136
1784845437.8647,1887,2168
1784845437.8649,1889,2172
1784845437.8651,1884,2172
1784845437.8669,2032,2168
1784845437.8688,2015,2168
1784845437.8707,1855,2155
1784845437.8725,1991,2166
1784845437.8744,2017,2285
1784845437.8762,2117,2294
1784845437.8783,2207,2284
1784845437.8804,1941,2283
1784845437.8824,2089,2272
1784845437.8845,1932,2275
1784845437.8866,1654,2293
1784845437.8886,1703,2266
1784845437.8906,1566,2267
1784845437.8926,1364,2259
1784845437.8946,1090,2261
1784845437.8966,1104,2265
1784845437.8986,1418,2270
1784845437.9007,1517,2252
1784845437.9024,1550,2256
1784845437.9042,1523,2253
1784845437.9060,1556,2255
1784845437.9078,1640,2291
1784845437.9096,1646,2260
1784845437.9114,1862,2253
1784845437.9137,1853,2429
1784845437.9160,1768,2426
1784845437.9183,1691,2420
1784845437.9206,1533,2445
1784845437.9229,1614,2409
1784845437.9253,1419,2423
1784845437.9277,1603,2410
1784845437.9300,1588,2408
1784845437.9324,1629,2405
1784845437.9348,1831,2408
1784845437.9372,1571,2402
1784845437.9387,1790,2396
1784845437.9402,1762,2397
1784845437.9417,1799,2417
1784845437.9432,1832,2401
1784845437.9448,1754,2390
1784845437.9463,1914,2389
1784845437.9483,2065,2387
1784845437.9503,2086,2383
1784845437.9523,1939,2382
1784845437.9543,2293,2409
1784845437.9564,1602,2402
1784845437.9584,1709,2398
1784845437.9604,1785,2395
1784845437.9624,1904,2377
1784845437.9644,2162,2392
1784845437.9664,2002,2388
1784845437.9684,1893,2379
1784845437.9705,1931,2385
1784845437.9734,2118,2390
1784845437.9764,1965,2636
1784845437.9794,1689,2629
1784845437.9824,1709,2627
1784845437.9853,1642,2621
1784845437.9920,1499,2620
1784845437.9921,1452,2616
1784845437.9922,1452,2592
1784845437.9923,1317,2608
1784845437.9924,1330,2615
1784845437.9925,1038,2612
1784845437.9945,1180,2604
1784845437.9965,1157,2606
1784845437.9985,1292,2589
1784845438.0005,1744,2507
1784845438.0025,1930,2587
1784845438.0045,1970,2583
1784845438.0065,1980,2564
1784845438.0085,1658,2570
1784845438.0106,1690,2559
1784845438.0126,1858,2569
1784845438.0146,1621,2565
1784845438.0166,1358,2564
1784845438.0191,1458,2556
1784845438.0216,1586,2520
1784845438.0241,1792,2550
1784845438.0265,1831,2547
1784845438.0290,1821,2547
1784845438.0315,1846,2536
1784845438.0327,1896,2542
1784845438.0339,1975,2546
1784845438.0352,1972,2649
1784845438.0364,1817,2627
1784845438.0376,2029,2629
1784845438.0388,2218,2623
1784845438.0413,2227,2564
1784845438.0437,2023,2607
1784845438.0461,1860,2610
1784845438.0486,1827,2607
1784845438.0510,1776,2603
1784845438.0529,1701,2614
1784845438.0548,1617,2595
1784845438.0567,1841,2598
1784845438.0586,1991,2590
1784845438.0605,1912,2592
1784845438.0624,1507,2583
1784845438.0644,1357,2584
1784845438.0663,1641,2573
1784845438.0683,1733,2564
1784845438.0703,1777,2565
1784845438.0722,1659,2559
1784845438.0742,1749,2573
1784845438.0762,1452,2551
1784845438.0782,1056,2557
1784845438.0802,1018,2555
1784845438.0823,897,2551
1784845438.0843,1503,2531
1784845438.0863,1924,2540
1784845438.0883,2037,2544
1784845438.0904,1882,2496
1784845438.0924,1793,2541
1784845438.0945,1797,2836
1784845438.0965,1302,2811
1784845438.0985,1269,2828
1784845438.1004,1238,2817
1784845438.1022,1306,2811
1784845438.1041,1531,2811
1784845438.1059,1711,2803
1784845438.1077,1847,2798
1784845438.1096,1934,2798
1784845438.1118,1875,2795
1784845438.1141,1946,2793
1784845438.1164,1919,2786
1784845438.1186,1950,2780
1784845438.1209,1956,2778
1784845438.1229,1928,2772
1784845438.1248,1922,2771
1784845438.1267,1897,2776
1784845438.1287,1864,2763
1784845438.1306,1882,2758
1784845438.1325,1848,2758
1784845438.1345,2086,2829
1784845438.1364,1721,2824
1784845438.1384,1818,2833
1784845438.1403,1832,2820
1784845438.1423,1685,2809
1784845438.1442,1794,2810
1784845438.1462,1901,2812
1784845438.1481,1941,2800
1784845438.1501,1885,2796
1784845438.1520,1826,2808
1784845438.1540,1804,2840
1784845438.1559,1597,2842
1784845438.1579,1469,2832
1784845438.1599,1428,2831
1784845438.1619,1441,2823
1784845438.1639,1370,2821
1784845438.1659,1480,2814
1784845438.1679,1615,2811
1784845438.1701,1568,2805
1784845438.1723,1587,2789
1784845438.1745,1685,2802
1784845438.1766,1612,2801
1784845438.1788,1681,2793
1784845438.1907,1850,2790
1784845438.1913,1941,2782
1784845438.1919,1790,2761
1784845438.1924,1619,2788
1784845438.1930,1589,2769
1784845438.1936,1673,2768
1784845438.1951,1700,2764
1784845438.1966,1662,2759
1784845438.1981,1982,2759
1784845438.1996,1617,2768
1784845438.2011,1648,2756
1784845438.2026,1674,2747
1784845438.2046,1741,2748
1784845438.2066,1738,2725
1784845438.2086,1783,2739
1784845438.2106,1808,2732
1784845438.2126,1772,2752
1784845438.2146,1758,2840
1784845438.2165,1767,2869
1784845438.2184,1707,2823
1784845438.2203,1750,2830
1784845438.2222,1712,2814
1784845438.2241,1742,2816
1784845438.2259,1761,2822
1784845438.2278,1741,2805
1784845438.2296,1744,2824
1784845438.2314,1779,2817
1784845438.2332,1771,2892
1784845438.2350,1663,2892
1784845438.2368,1691,2888
1784845438.2391,1685,2880
1784845438.2415,1769,2877
1784845438.2438,1701,2870
1784845438.2462,1684,2866
1784845438.2485,1865,2871
1784845438.2505,1885,2854
1784845438.2525,1829,2867
1784845438.2545,1741,2909
1784845438.2565,1601,2914
1784845438.2585,1568,2894
1784845438.2605,1514,2894
1784845438.2624,1444,2889
1784845438.2644,1486,2874
1784845438.2664,1544,2878
1784845438.2683,1630,2882
1784845438.2703,1689,2867
1784845438.2723,1715,2866
1784845438.2742,1840,2864
1784845438.2761,1883,2855
1784845438.2781,1798,2866
1784845438.2800,1647,2841
1784845438.2820,1639,2844
1784845438.2839,1626,2836
1784845438.2859,1652,2836
1784845438.2879,1632,2832
1784845438.2899,1695,2833
1784845438.2919,1727,2831
1784845438.2939,1719,2828
1784845438.2959,1674,2819
1784845438.2981,1714,2814
1784845438.3003,1733,2807
1784845438.3025,1733,2808
1784845438.3047,1760,2802
1784845438.3068,1746,2800
1784845438.3180,1743,2797
1784845438.3181,1774,2807
1784845438.3183,1754,2794
1784845438.3185,1741,2791
1784845438.3187,1712,2769
1784845438.3189,1724,2794
1784845438.3208,1692,2770
1784845438.3227,1710,2768
1784845438.3246,1728,2770
1784845438.3265,1695,2762
1784845438.3284,1718,2758
1784845438.3304,1733,2760
1784845438.3324,1759,2751
