host_time_s,chA_raw,chB_env,env,intent
1784847496.0696,1728,4095,57,250
1784847496.0736,1749,4095,57,250
1784847496.0740,1603,4095,57,250
1784847496.0744,1616,4095,57,250
1784847496.0748,1647,4095,56,250
1784847496.0766,1661,4095,56,250
1784847496.0785,1676,4095,56,250
1784847496.0804,1688,4095,56,250
1784847496.0822,1700,4095,55,250
1784847496.0844,1719,4095,56,250
1784847496.0866,1730,4095,56,0
1784847496.0888,1687,4095,56,0
1784847496.0960,1578,4095,56,0
1784847496.0963,1598,4095,56,0
1784847496.0966,1635,4095,55,0
1784847496.0969,1654,4095,55,0
1784847496.1069,1655,4095,54,0
1784847496.1073,1671,4095,54,0
1784847496.1077,1689,4095,54,0
1784847496.1080,1713,4095,54,0
1784847496.1120,1703,4095,54,0
1784847496.1124,1658,4095,54,0
1784847496.1129,1535,4095,54,0
1784847496.1133,1574,4095,54,0
1784847496.1204,1597,4095,54,0
1784847496.1208,1620,4095,54,0
1784847496.1211,1646,4095,53,0
1784847496.1214,1655,4095,53,0
1784847496.1280,1673,4095,53,0
1784847496.1289,1684,4095,53,0
1784847496.1297,1702,4095,53,0
1784847496.1306,1640,4095,52,0
1784847496.1413,1530,4095,53,0
1784847496.1416,1563,4095,53,0
1784847496.1420,1585,4095,53,0
1784847496.1424,1605,4095,53,0
1784847496.1440,1629,4095,53,0
1784847496.1443,1651,4095,52,0
1784847496.1446,1675,4095,52,0
1784847496.1449,1691,4095,52,0
1784847496.1520,1695,4095,52,0
1784847496.1523,1635,4095,51,0
1784847496.1527,1526,4095,52,0
1784847496.1530,1551,4095,53,0
1784847496.1600,1580,4095,53,0
1784847496.1604,1607,4095,53,0
1784847496.1607,1633,4095,52,0
1784847496.1610,1659,4095,52,0
1784847496.1925,1662,4095,51,0
1784847496.1927,1691,4095,51,0
1784847496.1928,1714,4095,51,0
1784847496.1929,1719,4095,52,0
1784847496.1931,4095,4095,76,0
1784847496.1932,1478,4095,77,0
1784847496.1933,1555,4095,77,0
1784847496.1934,1587,4095,77,0
1784847496.1936,1602,4095,76,0
1784847496.1937,1622,4095,76,0
1784847496.1938,1645,4095,75,0
1784847496.1940,1669,4095,74,0
1784847496.1941,1681,4095,74,0
1784847496.1942,1615,4095,74,0
1784847496.1944,1502,4095,74,0
1784847496.1945,1535,4095,75,0
1784847496.2042,1571,4095,75,0
1784847496.2045,1593,4095,75,0
1784847496.2048,1619,4095,74,0
1784847496.2051,1646,4095,73,0
1784847496.2081,1660,4095,73,0
1784847496.2084,1681,4095,72,0
1784847496.2087,1702,4095,72,0
1784847496.2090,1646,4095,72,0
1784847496.2161,1517,4095,72,0
1784847496.2167,1533,4095,73,0
1784847496.2174,1562,4095,73,0
1784847496.2181,1615,4095,72,0
1784847496.2242,1649,4095,72,0
1784847496.2245,1656,4095,71,0
1784847496.2249,1673,4095,70,0
1784847496.2252,1681,4095,70,0
1784847496.4924,1707,4095,70,0
1784847496.4924,1647,4095,69,0
1784847496.4924,1511,4095,70,0
1784847496.4924,1534,4095,70,0
1784847496.4925,1579,4095,70,0
1784847496.4925,1602,4095,70,0
1784847496.4925,1618,4095,70,0
1784847496.4925,1642,4095,69,0
1784847496.4925,1668,4095,69,0
1784847496.4925,1693,4095,68,0
1784847496.4925,1704,4095,68,0
1784847496.4925,1641,4095,68,0
1784847496.4925,1513,4095,68,0
1784847496.4925,1534,4095,69,0
1784847496.4925,1572,4095,69,0
1784847496.4925,1591,4095,69,0
1784847496.4925,1634,4095,68,0
1784847496.4926,1634,4095,68,0
1784847496.4926,1663,4095,67,0
1784847496.4926,1682,4095,67,0
1784847496.4926,1699,4095,67,0
1784847496.4926,1654,4095,66,0
1784847496.4926,1535,4095,66,0
1784847496.4926,1568,4095,67,0
1784847496.4926,1596,4095,66,0
1784847496.4926,1625,4095,66,0
1784847496.4926,1642,4095,65,0
1784847496.4926,1658,4095,65,0
1784847496.4926,1687,4095,65,0
1784847496.4926,1706,4095,64,0
1784847496.4927,1692,4095,64,0
1784847496.4927,2013,4095,67,0
1784847496.4927,1412,4095,69,0
1784847496.4927,1562,4095,69,0
1784847496.4927,1578,4095,69,0
1784847496.4927,1602,4095,69,0
1784847496.4927,1621,4095,68,0
1784847496.4927,1656,4095,68,0
1784847496.4927,1674,4095,67,0
1784847496.4927,1668,4095,67,0
1784847496.4927,1681,4095,67,0
1784847496.4927,1656,4095,66,0
1784847496.4927,1528,4095,67,0
1784847496.4928,1566,4095,67,0
1784847496.4928,1576,4095,67,0
1784847496.4928,1618,4095,66,0
1784847496.4928,1640,4095,66,0
1784847496.4928,1653,4095,65,0
1784847496.4928,1664,4095,65,0
1784847496.4928,1691,4095,64,0
1784847496.4928,1699,4095,64,0
1784847496.4928,2423,4095,71,0
1784847496.4928,1532,4095,72,0
1784847496.4928,1545,4095,72,0
1784847496.4928,1598,4095,72,0
1784847496.4929,1614,4095,72,0
1784847496.4929,1621,4095,71,0
1784847496.4929,1652,4095,70,0
1784847496.4929,1683,4095,70,0
1784847496.4929,1707,4095,70,0
1784847496.4929,1708,4095,70,0
1784847496.4929,1656,4095,69,0
1784847496.4929,1535,4095,70,0
1784847496.4929,1589,4095,70,0
1784847496.4929,1585,4095,69,0
1784847496.4929,1615,4095,69,0
1784847496.4929,1642,4095,68,0
1784847496.4929,1661,4095,68,0
1784847496.4930,1665,4095,67,0
1784847496.4930,1689,4095,67,0
1784847496.4930,1708,4095,67,0
1784847496.4930,1688,4095,67,0
1784847496.4930,1522,4095,67,0
1784847496.4930,1535,4095,68,0
1784847496.4930,1587,4095,68,0
1784847496.4930,1616,4095,67,0
1784847496.4930,1647,4095,67,0
1784847496.4930,1651,4095,66,0
1784847496.4930,1667,4095,66,0
1784847496.4930,1679,4095,65,0
1784847496.4930,1706,4095,65,0
1784847496.4931,1679,4095,65,0
1784847496.4931,1524,4095,65,0
1784847496.4931,1569,4095,66,0
1784847496.4931,1592,4095,65,0
1784847496.4931,1614,4095,65,0
1784847496.4931,1621,4095,65,0
1784847496.4931,1653,4095,64,0
1784847496.4931,1678,4095,64,0
1784847496.4931,1686,4095,64,0
1784847496.4931,1710,4095,63,0
1784847496.4931,1641,4095,63,0
1784847496.4931,1524,4095,64,0
1784847496.4931,1539,4095,64,0
1784847496.4932,1571,4095,64,0
1784847496.4932,1599,4095,64,0
1784847496.4932,1630,4095,64,0
1784847496.4932,1652,4095,63,0
1784847496.4932,1654,4095,62,0
1784847496.4932,1683,4095,62,0
1784847496.4932,1701,4095,62,0
1784847496.4932,1640,4095,61,0
1784847496.4932,1510,4095,62,0
1784847496.4932,1531,4095,63,0
1784847496.4932,1578,4095,63,0
1784847496.4932,1604,4095,63,0
1784847496.4932,1620,4095,62,0
1784847496.4933,1651,4095,62,0
1784847496.4933,1669,4095,61,0
1784847496.4933,1671,4095,61,0
1784847496.4933,1699,4095,61,0
1784847496.4933,2511,4095,69,0
1784847496.4933,1510,4095,69,0
1784847496.4933,1535,4095,70,0
1784847496.4933,1572,4095,70,0
1784847496.4933,1595,4095,70,0
1784847496.4933,1621,4095,69,0
1784847496.4933,1651,4095,69,0
1784847496.4933,1672,4095,68,0
1784847496.4933,1678,4095,68,0
1784847496.4934,1695,4095,68,0
1784847496.4934,1617,4095,67,0
1784847496.4934,1499,4095,68,0
1784847496.4934,1534,4095,69,0
1784847496.4934,1584,4095,68,0
1784847496.4934,1616,4095,68,0
1784847496.4934,1632,4095,68,0
1784847496.4934,1653,4095,67,0
1784847496.4934,1679,4095,67,0
1784847496.4934,1694,4095,66,0
1784847496.4934,1706,4095,66,0
1784847496.4934,1684,4095,66,0
1784847496.4959,1515,4095,67,0
1784847496.4961,1539,4095,67,0
1784847496.4963,1582,4095,67,0
1784847496.4965,1592,4095,67,0
1784847496.5040,1619,4095,67,0
1784847496.5042,1651,4095,66,0
1784847496.5044,1681,4095,66,0
1784847496.5046,1675,4095,65,0
1784847496.5119,1696,4095,65,0
1784847496.5121,1668,4095,65,0
1784847496.5122,1521,4095,65,0
1784847496.5124,1534,4095,66,0
1784847496.5200,1568,4095,66,0
1784847496.5202,1600,4095,66,0
1784847496.5204,1634,4095,65,0
1784847496.5207,1644,4095,64,0
1784847496.5279,1656,4095,64,0
1784847496.5281,1680,4095,64,0
1784847496.5282,1702,4095,63,0
1784847496.5284,1860,4095,65,0
1784847496.5359,1511,4095,66,0
1784847496.5361,1534,4095,66,0
1784847496.5362,1578,4095,66,0
1784847496.5364,1602,4095,66,0
1784847496.5440,1614,4095,66,0
1784847496.5442,1648,4095,65,0
1784847496.5443,1669,4095,65,0
1784847496.5445,1688,4095,64,0
1784847496.5519,1709,4095,64,0
1784847496.5521,2508,4095,72,0
1784847496.5522,1513,4095,73,0
1784847496.5524,1535,4095,73,0
1784847496.5665,1563,4095,73,0
1784847496.5686,1599,4095,73,0
1784847496.5707,1638,4095,73,0
1784847496.5727,1660,4095,72,0
1784847496.5760,1677,4095,71,0
1784847496.5792,1687,4095,71,0
1784847496.5825,1709,4095,71,0
1784847496.5858,1646,4095,70,0
1784847496.5860,1523,4095,71,0
1784847496.5862,1539,4095,71,0
1784847496.5864,1582,4095,71,0
1784847496.5866,1613,4095,71,0
1784847496.5869,1637,4095,70,0
1784847496.5871,1638,4095,70,0
1784847496.5873,1632,4095,69,0
1784847496.5875,1659,4095,69,0
1784847496.6116,1672,4095,68,0
1784847496.6120,1761,4095,68,0
1784847496.6123,1422,4095,70,0
1784847496.6126,1532,4095,71,0
1784847496.6129,1566,4095,71,0
1784847496.6132,1595,4095,70,0
1784847496.6135,1610,4095,70,0
1784847496.6138,1639,4095,70,0
1784847496.6142,1826,4095,71,0
1784847496.6145,1828,4095,72,0
1784847496.6148,1812,4095,73,0
1784847496.6151,1762,4095,73,0
1784847496.6159,1637,4095,72,0
1784847496.6161,1571,4095,72,0
1784847496.6163,1580,4095,72,0
1784847496.6165,1604,4095,72,0
1784847496.6362,1627,4095,72,0
1784847496.6363,1640,4095,71,0
1784847496.6364,1647,4095,70,0
1784847496.6365,1659,4095,70,0
1784847496.6366,1678,4095,69,0
1784847496.6367,1944,4095,72,0
1784847496.6368,1786,4095,72,0
1784847496.6369,1776,4095,73,0
1784847496.6399,1790,4095,73,0
1784847496.6401,1753,4095,74,0
1784847496.6402,1756,4095,74,0
1784847496.6404,1734,4095,74,0
1784847496.6589,1735,4095,74,0
1784847496.6616,1775,4095,75,0
1784847496.6643,1755,4095,75,0
1784847496.6670,1754,4095,75,0
1784847496.6697,1709,4095,75,0
1784847496.6724,1696,4095,75,0
1784847496.6751,1709,4095,75,0
1784847496.6778,1633,4095,74,0
1784847496.6797,1234,4095,78,0
1784847496.6815,1316,4095,80,0
1784847496.6833,1369,4095,82,0
1784847496.6851,1450,4095,83,0
1784847496.6869,1526,4095,84,0
1784847496.6887,1672,4095,83,0
1784847496.6905,1576,4095,83,0
1784847496.6923,1615,4095,82,0
1784847496.6941,1664,4095,82,0
1784847496.6959,1692,4095,81,0
1784847496.6977,1716,4095,81,0
1784847496.6978,1744,4095,81,0
1784847496.6979,1765,4095,82,0
1784847496.6980,1793,4095,82,0
1784847496.6981,1798,4095,83,404
1784847496.6982,1766,4095,83,404
1784847496.6984,1823,4095,84,404
1784847496.6985,1845,4095,85,404
1784847496.6988,2156,4095,90,404
1784847496.6991,1781,4095,90,404
1784847496.6995,1791,4095,90,404
1784847496.6998,1818,4095,91,404
1784847496.7022,1820,4095,92,404
1784847496.7047,1792,4095,93,404
1784847496.7072,1796,4095,93,515
1784847496.7105,1823,4095,94,515
1784847496.7138,1820,4095,95,515
1784847496.7171,1814,4015,95,515
1784847496.7204,1802,4095,96,515
1784847496.7237,1811,4095,97,515
1784847496.7270,1802,4095,97,515
1784847496.7303,1792,4095,98,515
1784847496.7336,1780,4094,98,515
1784847496.7369,1788,4082,98,515
1784847496.7402,1787,4086,99,576
1784847496.7435,1787,4086,99,576
1784847496.7436,1775,4049,99,576
1784847496.7437,1768,4040,99,576
1784847496.7438,1766,4013,100,576
1784847496.7439,1755,4012,100,576
1784847496.7441,1758,4000,100,576
1784847496.7442,1760,3986,100,576
1784847496.7443,1749,3973,100,576
1784847496.7458,1755,3973,100,576
1784847496.7473,1747,3998,100,590
1784847496.7488,1738,3944,100,590
1784847496.7507,1715,3933,99,590
1784847496.7527,1735,3919,99,590
1784847496.7546,1715,3916,99,590
1784847496.7565,1722,3910,99,590
1784847496.7620,1726,3884,98,590
1784847496.7675,1724,3875,98,590
1784847496.7730,1732,3865,98,590
1784847496.7731,1732,3852,98,590
1784847496.7733,1729,3856,98,565
1784847496.7735,1736,3829,98,565
1784847496.7737,1668,3773,97,565
1784847496.7748,1671,3811,96,565
1784847496.7759,1680,3814,95,565
1784847496.7770,1706,3786,95,565
1784847496.7876,1695,3789,94,565
1784847496.7879,1687,3774,94,565
1784847496.7881,1704,3813,93,565
1784847496.7884,1723,3749,93,565
1784847496.7891,1725,3759,93,514
1784847496.7899,1693,4095,93,514
1784847496.7906,1466,4095,93,514
1784847496.7914,1498,4095,94,514
1784847496.7945,1528,4095,94,514
1784847496.7976,1544,4095,94,514
1784847496.8007,1583,4095,94,514
1784847496.8019,1609,4095,94,514
1784847496.8031,1630,4095,93,514
1784847496.8043,1652,4095,92,514
1784847496.8055,1648,4095,91,492
1784847496.8123,1620,4095,90,492
1784847496.8192,1469,4095,91,492
1784847496.8261,1490,4095,92,492
1784847496.8272,1515,4095,92,492
1784847496.8284,1577,4095,92,492
1784847496.8295,1606,4095,92,492
1784847496.8306,1616,4095,91,492
1784847496.8318,1628,4095,90,492
1784847496.8329,1667,4095,90,492
1784847496.8341,1689,4095,89,472
1784847496.8372,1705,4095,89,472
1784847496.8404,1711,4095,89,472
1784847496.8435,3018,4095,101,472
1784847496.8466,1691,4095,101,472
1784847496.8481,1429,4095,102,472
1784847496.8495,1484,4095,103,472
1784847496.8510,1515,4095,103,472
1784847496.8524,1562,4095,103,472
1784847496.8539,1587,4095,102,472
1784847496.8553,1613,4095,102,609
1784847496.8568,3654,4095,121,609
1784847496.8571,1419,4095,122,609
1784847496.8574,1490,4095,122,609
1784847496.8577,1776,4095,122,609
1784847496.8587,1510,4095,122,609
1784847496.8596,1572,4095,122,609
1784847496.8606,1607,4095,121,609
1784847496.8623,1625,4095,120,609
1784847496.8641,1650,4095,119,609
1784847496.8659,1679,4095,118,790
1784847496.8677,1636,4095,117,790
1784847496.8698,1460,4095,118,790
1784847496.8719,1495,4095,118,790
1784847496.8740,1544,4095,118,790
1784847496.8764,1586,4095,117,790
1784847496.8789,1613,4095,117,790
1784847496.8813,1637,4095,116,790
1784847496.8829,1652,4095,114,790
1784847496.8845,1684,4095,114,790
1784847496.8861,1714,4095,113,735
1784847496.8877,1636,4095,112,735
1784847496.8899,1494,4095,113,735
1784847496.8921,1533,4095,113,735
1784847496.8943,1571,4095,112,735
1784847496.8967,1593,4095,112,735
1784847496.8990,1618,4095,111,735
1784847496.9014,1647,4095,110,735
1784847496.9275,1663,4095,109,735
1784847496.9276,1668,4095,108,735
1784847496.9277,1685,4095,107,670
1784847496.9278,1846,4095,108,670
1784847496.9279,1437,4095,109,670
1784847496.9280,1649,4095,108,670
1784847496.9281,1481,4095,109,670
1784847496.9282,1528,4095,109,670
1784847496.9282,1556,4095,109,670
1784847496.9283,1592,4095,108,670
1784847496.9284,1784,4095,108,670
1784847496.9285,1620,4095,108,670
1784847496.9286,1656,4095,107,663
1784847496.9287,1628,4095,106,663
1784847496.9312,1459,4095,107,663
1784847496.9336,1655,4095,106,663
1784847496.9361,1522,4095,106,663
1784847496.9377,1562,4095,106,663
1784847496.9393,1584,4095,105,663
1784847496.9409,1607,4095,105,663
1784847496.9425,1783,4095,105,663
1784847496.9452,1649,4095,104,663
1784847496.9479,1671,4095,103,623
1784847496.9506,1644,4095,102,623
1784847496.9522,1478,4095,103,623
1784847496.9539,1674,4095,102,623
1784847496.9555,1527,4095,102,623
1784847496.9574,1563,4095,102,623
1784847496.9593,1593,4095,101,623
1784847496.9612,1620,4095,101,623
1784847496.9631,1775,4095,101,623
1784847496.9650,1648,4095,100,623
1784847496.9668,1690,4095,99,584
1784847496.9687,1655,4095,98,584
1784847496.9706,1479,4095,99,584
1784847496.9725,1506,4095,100,584
1784847496.9744,1557,4095,100,584
1784847496.9762,1588,4095,99,584
1784847496.9791,1610,4095,99,584
1784847496.9821,1620,4095,98,584
1784847496.9850,1839,4095,99,584
1784847496.9865,1655,4095,98,584
1784847496.9880,1674,4095,97,559
1784847496.9895,1891,4095,99,559
1784847496.9910,1436,4095,100,559
1784847496.9937,1692,4095,99,559
1784847496.9964,1501,4095,100,559
1784847496.9991,1531,4095,100,559
1784847497.0015,1557,4095,100,559
1784847497.0038,1589,4095,99,559
1784847497.0062,1741,4095,99,559
1784847497.0085,1627,4095,98,559
1784847497.0092,1652,4095,97,563
1784847497.0098,4052,4095,121,563
1784847497.0105,1312,4095,123,563
1784847497.0123,1672,4095,122,563
1784847497.0142,1480,4095,122,563
1784847497.0160,1520,4095,122,563
1784847497.0179,1534,4095,122,563
1784847497.0204,1786,4095,122,563
1784847497.0229,1806,4095,123,563
1784847497.0254,1601,4095,122,563
1784847497.0273,1636,4095,121,820
1784847497.0292,1555,4095,121,820
1784847497.0310,1390,4095,122,820
1784847497.0334,1679,4095,121,820
1784847497.0357,1489,4095,121,820
1784847497.0381,1520,4095,121,820
1784847497.0404,1520,4095,122,820
1784847497.0416,1555,4095,121,820
1784847497.0428,1840,4095,122,820
1784847497.0440,1616,4095,121,820
1784847497.0466,1646,4095,120,810
1784847497.0491,1609,4095,119,810
1784847497.0517,1442,4095,120,810
1784847497.0532,1475,4095,121,810
1784847497.0547,1521,4095,121,810
1784847497.0562,1570,4095,120,810
1784847497.0577,1612,4095,119,810
1784847497.0599,1625,4095,118,810
1784847497.0621,1837,4095,119,810
1784847497.0643,1627,4095,118,810
1784847497.0667,1660,4095,117,779
1784847497.0690,1669,4095,116,779
1784847497.0713,3511,4095,134,779
1784847497.0772,1518,4095,134,779
1784847497.0774,1459,4095,134,779
1784847497.0776,1515,4095,134,779
1784847497.0778,1531,4095,134,779
1784847497.0801,1551,4095,134,779
1784847497.0823,1792,4095,134,779
1784847497.0846,1594,4095,133,779
1784847497.0863,1636,4095,132,939
1784847497.0880,1584,4095,131,939
1784847497.0898,1441,4095,132,939
1784847497.0915,1587,4095,131,939
1784847497.0937,1514,4095,131,939
1784847497.0960,1547,4095,131,939
1784847497.0982,1585,4095,130,939
1784847497.1004,1701,4095,129,939
1784847497.1025,1800,4095,130,939
1784847497.1047,1643,4095,128,939
1784847497.1064,1655,4095,127,889
1784847497.1081,1708,4095,126,889
1784847497.1098,1478,4095,127,889
1784847497.1115,1681,4095,126,889
1784847497.1144,1527,4095,126,889
1784847497.1173,1587,4095,125,889
1784847497.1202,1590,4095,125,889
1784847497.1230,1615,4095,124,889
1784847497.1259,1795,4095,124,889
1784847497.1288,1647,4095,123,889
1784847497.1298,1679,4095,122,830
1784847497.1307,1686,4095,121,830
1784847497.1316,1691,4095,120,830
1784847497.1326,1536,4095,120,830
1784847497.1345,1528,4095,120,830
1784847497.1364,1571,4095,120,830
1784847497.1383,1587,4095,119,830
1784847497.1407,1606,4095,118,830
1784847497.1432,1634,4095,117,830
1784847497.1456,1664,4095,116,830
1784847497.1480,1684,4095,115,760
1784847497.1505,1614,4095,115,760
1784847497.1529,1501,4095,115,760
1784847497.1553,1560,4095,115,760
1784847497.1565,1575,4095,114,760
1784847497.1576,1722,4095,114,760
1784847497.1587,1605,4095,113,760
1784847497.1613,1758,4095,113,760
1784847497.1640,1750,4095,113,760
1784847497.1666,1767,4095,113,760
1784847497.1692,1657,4095,112,722
1784847497.1701,1721,4095,112,722
1784847497.1711,1465,4095,112,722
1784847497.1720,1633,4095,111,722
1784847497.1744,1523,4095,111,722
1784847497.1767,1574,4095,111,722
1784847497.1791,1597,4095,110,722
1784847497.1809,1602,4095,110,722
1784847497.1828,1744,4095,110,722
1784847497.1846,1638,4095,109,722
1784847497.1864,1654,4095,108,675
1784847497.1890,1898,4095,109,675
1784847497.1915,1486,4095,110,675
1784847497.1941,1640,4095,109,675
1784847497.1967,1541,4095,109,675
1784847497.1992,1571,4095,108,675
1784847497.2018,1594,4095,108,675
1784847497.2051,1621,4095,107,675
1784847497.2054,1769,4095,107,675
1784847497.2056,1650,4095,106,675
1784847497.2059,1666,4095,105,647
1784847497.2081,1670,4095,104,647
1784847497.2104,1517,4095,105,647
1784847497.2126,1539,4095,105,647
1784847497.2148,1577,4095,104,647
1784847497.2171,1602,4095,104,647
1784847497.2193,1641,4095,103,647
1784847497.2216,1646,4095,102,647
1784847497.2238,1797,4095,102,647
1784847497.2260,1683,4095,102,647
1784847497.2283,1709,4095,101,603
1784847497.2300,1656,4095,100,603
1784847497.2318,1651,4095,99,603
1784847497.2336,1683,4095,98,603
1784847497.2394,1562,4095,98,603
1784847497.2397,1589,4095,98,603
1784847497.2399,1599,4095,98,603
1784847497.2402,1622,4095,97,603
1784847497.2426,1768,4095,97,603
1784847497.2449,1655,4095,96,603
1784847497.2473,1679,4095,95,540
1784847497.2496,1645,4095,95,540
1784847497.2512,1526,4095,95,540
1784847497.2528,1673,4095,94,540
1784847497.2543,1578,4095,94,540
1784847497.2562,1606,4095,93,540
1784847497.2582,1617,4095,93,540
1784847497.2601,1638,4095,92,540
1784847497.2620,1783,4095,92,540
1784847497.2644,1660,4095,91,540
1784847497.2668,1688,4095,91,491
1784847497.2692,1677,4095,90,491
1784847497.2709,1559,4095,90,491
1784847497.2727,1623,4095,90,491
1784847497.2745,1593,4095,89,491
1784847497.2762,1623,4095,89,491
1784847497.2796,1639,4095,88,491
1784847497.2830,1657,4095,87,491
1784847497.2864,1794,4095,88,491
1784847497.2873,1683,4095,87,491
1784847497.2882,1703,4095,87,446
1784847497.2891,1749,4095,87,446
1784847497.2900,1535,4095,87,446
1784847497.2932,1569,4095,87,446
1784847497.2964,1592,4095,87,446
1784847497.2996,1613,4095,86,446
1784847497.3035,1644,4095,85,446
1784847497.3037,1651,4095,85,446
1784847497.3039,1733,4095,85,446
1784847497.3041,1685,4095,84,446
1784847497.3064,1702,4095,84,413
1784847497.3088,1710,4095,84,413
1784847497.3112,3706,4095,103,413
1784847497.3184,1605,4095,103,413
1784847497.3187,1568,4095,102,413
1784847497.3190,1587,4095,102,413
1784847497.3192,1601,4095,102,413
1784847497.3215,1617,4095,101,413
1784847497.3238,1768,4095,101,413
1784847497.3261,1655,4095,100,413
1784847497.3275,1678,4095,99,584
1784847497.3289,1620,4095,99,584
1784847497.3304,1499,4095,99,584
1784847497.3318,1683,4095,98,584
1784847497.3349,1560,4095,98,584
1784847497.3380,1590,4095,98,584
1784847497.3411,1598,4095,98,584
1784847497.3427,1619,4095,97,584
1784847497.3444,1736,4095,97,584
1784847497.3460,1667,4095,96,584
1784847497.3477,1674,4095,95,538
1784847497.3513,1641,4095,94,538
1784847497.3549,1615,4095,94,538
1784847497.3584,1712,4095,93,538
1784847497.3594,1560,4095,93,538
1784847497.3596,1586,4095,93,538
1784847497.3599,1589,4095,93,538
1784847497.3601,1621,4095,92,538
1784847497.3622,1856,4095,93,538
1784847497.3644,1645,4095,92,538
1784847497.3665,1655,4095,92,498
1784847497.3687,1679,4095,91,498
1784847497.3708,1679,4095,90,498
1784847497.3730,2700,4095,100,498
1784847497.3752,1510,4095,100,498
1784847497.3778,1558,4095,100,498
1784847497.3803,1609,4095,100,498
1784847497.3829,1604,4095,99,498
1784847497.3842,1865,4095,100,498
1784847497.3855,1615,4095,100,498
1784847497.3868,1655,4095,99,575
1784847497.3881,1850,4095,100,575
1784847497.3902,1467,4095,100,575
1784847497.3923,1779,4095,101,575
1784847497.3945,1503,4095,101,575
1784847497.3963,1532,4095,101,575
1784847497.3981,1563,4095,101,575
1784847497.3999,1598,4095,101,575
1784847497.4017,1940,4095,103,575
1784847497.4038,1607,4095,102,575
1784847497.4059,1645,4095,101,602
1784847497.4079,1618,4095,100,602
1784847497.4101,1485,4095,101,602
1784847497.4123,1849,4095,102,602
1784847497.4145,1513,4095,102,602
1784847497.4162,1570,4095,102,602
1784847497.4180,1585,4095,102,602
1784847497.4197,1601,4095,101,602
1784847497.4214,1977,4095,103,602
1784847497.4237,1619,4095,103,602
1784847497.4260,1654,4095,102,609
1784847497.4282,2701,4095,111,609
1784847497.4304,1478,4095,112,609
1784847497.4325,1887,4095,113,609
1784847497.4346,1514,4095,113,609
1784847497.4365,1573,4095,113,609
1784847497.4383,1579,4095,112,609
1784847497.4401,1594,4095,112,609
1784847497.4419,2009,4095,114,609
1784847497.4441,1615,4095,114,609
1784847497.4463,1643,4095,112,728
1784847497.4485,1593,4095,112,728
1784847497.4501,1487,4095,112,728
1784847497.4517,1535,4095,112,728
1784847497.4533,1572,4095,112,728
1784847497.4549,1585,4095,112,728
1784847497.4573,1642,4095,111,728
1784847497.4596,1649,4095,110,728
1784847497.4619,2030,4095,112,728
1784847497.4642,1619,4095,111,728
1784847497.4666,1665,4095,110,706
1784847497.4689,1625,4095,110,706
1784847497.4713,1528,4095,110,706
1784847497.4736,1776,4095,110,706
1784847497.4760,1535,4095,110,706
1784847497.4783,1602,4095,109,706
1784847497.4797,1611,4095,109,706
1784847497.4811,1634,4095,108,706
1784847497.4825,2038,4095,110,706
1784847497.4849,1640,4095,109,706
1784847497.4874,1661,4095,108,684
1784847497.4898,1642,4095,107,684
1784847497.4945,1652,4095,106,684
1784847497.4991,1875,4095,108,684
1784847497.5038,1499,4095,108,684
1784847497.5085,1539,4095,108,684
1784847497.5086,1536,4095,108,684
1784847497.5087,1573,4095,108,684
1784847497.5088,2030,4095,110,684
1784847497.5089,1585,4095,110,684
1784847497.5090,1619,4095,109,693
1784847497.5091,1603,4095,109,693
1784847497.5152,1486,4095,109,693
1784847497.5154,1958,4095,111,693
1784847497.5156,1490,4095,112,693
1784847497.5158,1536,4095,112,693
1784847497.5194,1582,4095,111,693
1784847497.5229,1609,4095,111,693
1784847497.5264,1871,4095,112,693
1784847497.5272,1619,4095,111,693
1784847497.5279,1661,4095,110,699
1784847497.5287,1651,4095,109,699
1784847497.5295,1641,4095,108,699
1784847497.5319,2516,4095,115,699
1784847497.5342,1534,4095,115,699
1784847497.5366,1575,4095,115,699
1784847497.5388,1593,4095,114,699
1784847497.5410,1613,4095,114,699
1784847497.5431,1653,4095,112,699
1784847497.5451,1687,4095,112,699
1784847497.5471,1679,4095,111,710
1784847497.5491,1662,4095,110,710
1784847497.5511,1540,4095,110,710
1784847497.5530,1591,4095,109,710
1784847497.5550,1612,4095,109,710
1784847497.5570,1887,4095,110,710
1784847497.5593,1609,4095,109,710
1784847497.5615,1886,4095,110,710
1784847497.5638,1631,4095,110,710
1784847497.5660,1946,4095,111,710
1784847497.5683,1639,4095,110,705
1784847497.5705,4095,4095,134,705
1784847497.5728,1243,4095,136,705
1784847497.5741,1793,4095,137,705
1784847497.5753,1338,4095,138,705
1784847497.5766,1414,4095,139,705
1784847497.5782,1447,4095,140,705
1784847497.5798,1432,4095,141,705
1784847497.5814,1733,4095,140,705
1784847497.5830,1476,4095,140,705
1784847497.5855,1998,4095,142,1000
1784847497.5880,1916,4095,144,1000
1784847497.5905,1320,4095,146,1000
1784847497.5925,1874,4095,146,1000
1784847497.5945,1387,4095,148,1000
1784847497.5966,1451,4095,148,1000
1784847497.5985,1461,4095,148,1000
1784847497.6005,1496,4095,149,1000
1784847497.6025,2052,4095,151,1000
1784847497.6047,1528,4095,151,1000
1784847497.6068,1584,4095,150,1000
1784847497.6090,1539,4095,150,1000
1784847497.6106,1500,4095,150,1000
1784847497.6122,1525,4095,149,1000
1784847497.6139,1567,4095,149,1000
1784847497.6155,1599,4095,148,1000
1784847497.6181,1648,4095,146,1000
1784847497.6208,1650,4095,145,1000
1784847497.6234,2148,4095,148,1000
1784847497.6249,1608,4095,147,1000
1784847497.6264,1660,4095,146,1000
1784847497.6280,1605,4095,145,1000
1784847497.6302,1511,4095,145,1000
1784847497.6324,1826,4095,145,1000
1784847497.6345,1565,4095,144,1000
1784847497.6367,1602,4095,144,1000
1784847497.6389,1615,4095,142,1000
1784847497.6411,1646,4095,141,1000
1784847497.6428,2131,4095,144,1000
1784847497.6445,1630,4095,143,1000
1784847497.6462,1682,4095,142,1000
1784847497.6479,1638,4095,141,1000
1784847497.6504,1564,4095,140,1000
1784847497.6529,2060,4095,143,1000
1784847497.6553,1556,4095,142,1000
1784847497.6571,1610,4095,141,1000
1784847497.6589,1612,4095,140,1000
1784847497.6607,1619,4095,139,1000
1784847497.6626,2125,4095,143,1000
1784847497.6645,1598,4095,142,1000
1784847497.6663,1647,4064,140,1000
1784847497.6693,1607,4095,139,1000
1784847497.6722,1535,4095,139,1000
1784847497.6751,1816,4095,139,1000
1784847497.6762,1565,4095,139,1000
1784847497.6773,1604,4095,138,1000
1784847497.6785,1626,4088,137,1000
1784847497.6796,1891,4078,138,1000
1784847497.6819,2085,4070,141,1000
1784847497.6841,1621,4035,140,1000
1784847497.6864,1649,4053,138,1000
1784847497.6885,1593,4043,137,1000
1784847497.6906,1527,4021,137,1000
1784847497.6926,1574,3997,137,1000
1784847497.6946,1567,3996,136,1000
1784847497.6967,1587,3965,135,1000
1784847497.6987,1585,3967,135,1000
1784847497.7007,1596,3965,134,1000
1784847497.7027,2108,3957,137,1000
1784847497.7047,1596,3935,136,1000
1784847497.7065,1638,3945,135,978
1784847497.7082,1602,3914,134,978
1784847497.7099,1565,3892,134,978
1784847497.7116,1589,3885,133,978
1784847497.7138,1626,3872,132,978
1784847497.7160,1620,3865,131,978
1784847497.7182,1602,3904,130,978
1784847497.7204,1607,3848,129,978
1784847497.7226,2103,3833,133,978
1784847497.7247,1603,3832,132,978
1784847497.7311,1653,3838,130,925
1784847497.7313,1631,3807,129,925
1784847497.7314,1578,3794,129,925
1784847497.7316,2072,3782,132,925
1784847497.7353,1585,3772,131,925
1784847497.7390,1626,3765,130,925
1784847497.7426,1608,3753,129,925
1784847497.7433,1620,3746,128,925
1784847497.7440,1886,3732,129,925
1784847497.7447,1640,3726,128,925
1784847497.7453,1666,3749,127,885
1784847497.7476,1657,3701,126,885
1784847497.7499,1871,3698,127,885
1784847497.7522,2075,3692,129,885
1784847497.7543,1625,3682,128,885
1784847497.7564,1628,3662,127,885
1784847497.7585,1615,3663,126,885
1784847497.7603,1635,3652,125,885
1784847497.7621,2104,3639,129,885
1784847497.7639,1613,3624,128,885
1784847497.7657,1646,3655,126,882
1784847497.7679,1643,3618,125,882
1784847497.7700,1614,3608,124,882
1784847497.7722,2080,3604,127,882
1784847497.7743,1610,3591,127,882
1784847497.7765,1655,3593,125,882
1784847497.7787,1634,3575,124,882
1784847497.7804,1642,3564,123,882
1784847497.7821,2118,3558,127,882
1784847497.7839,1635,3549,125,882
1784847497.7856,1649,3567,124,857
1784847497.7878,1609,3533,123,857
1784847497.7899,1591,3530,123,857
1784847497.7921,2063,3522,126,857
1784847497.7938,1610,3509,125,857
1784847497.7955,1628,3497,124,857
1784847497.7972,1624,3510,123,857
1784847497.7990,1619,3491,122,857
1784847497.8020,2088,3489,125,857
1784847497.8050,1625,3479,124,857
1784847497.8081,1671,3488,123,844
1784847497.8095,1662,3468,122,844
1784847497.8109,1660,3460,121,844
1784847497.8124,2120,3439,124,844
1784847497.8141,1631,3443,123,844
1784847497.8158,1638,3438,122,844
1784847497.8176,1642,3423,121,844
1784847497.8193,1639,3423,120,844
1784847497.8215,2105,3419,123,844
1784847497.8237,1616,3413,122,844
1784847497.8260,1675,3409,121,825
1784847497.8282,1663,3399,120,825
1784847497.8305,1606,3395,119,825
1784847497.8327,2054,3386,122,825
1784847497.8344,1598,3389,122,825
1784847497.8362,1630,3380,121,825
1784847497.8379,1632,3367,120,825
1784847497.8397,1629,3354,119,825
1784847497.8419,2089,3353,122,825
1784847497.8441,1620,3357,121,825
1784847497.8464,1658,3353,120,808
1784847497.8485,1611,4091,119,808
1784847497.8507,1526,4071,119,808
1784847497.8529,1792,4047,119,808
1784847497.8591,1561,4034,119,808
1784847497.8593,1582,4013,118,808
1784847497.8595,1602,4009,118,808
1784847497.8597,1851,3992,119,808
1784847497.8620,1615,3984,118,808
1784847497.8643,1649,3969,117,808
1784847497.8667,1663,4001,116,761
1784847497.8684,1662,4095,114,761
1784847497.8701,1508,4095,115,761
1784847497.8717,1535,4095,115,761
1784847497.8734,1574,4095,114,761
1784847497.8769,1601,4095,114,761
1784847497.8804,1625,4095,113,761
1784847497.8839,1644,4095,112,761
1784847497.8847,1659,4095,111,761
1784847497.8855,1683,4095,110,761
1784847497.8864,1722,4095,110,696
1784847497.8881,1673,4095,109,696
1784847497.8899,1532,4095,109,696
1784847497.8916,1588,4095,108,696
1784847497.8934,1607,4095,108,696
1784847497.8956,1625,4095,107,696
1784847497.8979,1651,4095,106,696
1784847497.9001,1678,4095,105,696
1784847497.9023,1685,4095,104,696
1784847497.9045,1713,4095,104,696
1784847497.9067,1715,4095,103,629
1784847497.9085,2445,4095,110,629
1784847497.9102,1490,4095,111,629
1784847497.9120,1607,4095,110,629
1784847497.9138,1625,4095,109,629
1784847497.9159,1642,4095,108,629
1784847497.9180,1674,4095,107,629
1784847497.9201,1678,4095,107,629
1784847497.9218,1683,4095,106,629
1784847497.9235,1709,4095,105,629
1784847497.9252,1725,4095,105,647
1784847497.9269,1670,4095,104,647
1784847497.9293,1583,4095,104,647
1784847497.9316,1604,4095,103,647
1784847497.9340,1629,4095,102,647
1784847497.9361,1644,4095,102,647
1784847497.9382,1659,4095,101,647
1784847497.9403,1668,4095,100,647
1784847497.9430,1690,4095,99,647
1784847497.9457,1714,4095,99,647
1784847497.9483,1709,4095,98,572
1784847497.9510,1717,4095,98,572
1784847497.9523,1581,4095,98,572
1784847497.9536,1589,4095,97,572
1784847497.9549,1615,4095,97,572
1784847497.9568,1632,4095,96,572
1784847497.9587,1645,4095,95,572
1784847497.9606,1681,4095,94,572
1784847497.9625,1696,4095,94,572
1784847497.9640,1694,4095,93,572
1784847497.9656,1726,4095,93,516
1784847497.9671,1672,4095,92,516
1784847497.9687,1573,4095,92,516
1784847497.9711,1585,4095,92,516
1784847497.9736,1602,4095,92,516
1784847497.9760,1631,4095,91,516
1784847497.9779,1673,4095,90,516
1784847497.9797,1678,4095,90,516
1784847497.9815,1677,4095,89,516
1784847497.9834,1709,4095,89,516
1784847497.9856,1714,4095,88,462
1784847497.9878,1644,4095,87,462
1784847497.9900,1571,4095,87,462
1784847497.9919,1605,4095,87,462
1784847497.9938,1625,4095,86,462
1784847497.9957,1634,4095,86,462
1784847497.9976,1650,4095,85,462
1784847497.9999,1674,4095,84,462
1784847498.0022,1700,4095,84,462
1784847498.0045,1702,4095,84,462
1784847498.0068,1702,4095,83,406
1784847498.0091,1653,4095,82,406
1784847498.0114,1589,4095,82,406
1784847498.0136,1599,4095,82,406
1784847498.0153,1623,4095,81,406
1784847498.0170,1646,4095,81,406
1784847498.0186,1664,4095,80,406
1784847498.0204,1676,4095,79,406
1784847498.0222,1682,4095,79,406
1784847498.0240,1699,4095,78,406
1784847498.0258,1715,4095,78,353
1784847498.0275,1705,4095,78,353
1784847498.0292,1590,4095,78,353
1784847498.0309,1617,4095,77,353
1784847498.0326,1641,4095,77,353
1784847498.0351,1650,4095,76,353
1784847498.0375,1667,4095,75,353
1784847498.0400,1681,4095,75,353
1784847498.0419,1704,4095,75,353
1784847498.0437,1718,4095,75,353
1784847498.0456,1707,4095,74,310
1784847498.0474,1713,4095,74,310
1784847498.0496,3782,4095,95,310
1784847498.0519,1569,4095,95,310
1784847498.0541,1626,4095,94,310
1784847498.0561,1633,4095,93,310
1784847498.0580,1662,4095,92,310
1784847498.0600,1683,4092,92,310
1784847498.0619,1688,4087,91,310
1784847498.0641,1696,4079,91,310
1784847498.0662,1698,4063,90,484
1784847498.0683,1697,4050,90,484
1784847498.0701,1607,4047,89,484
1784847498.0720,1617,4024,89,484
1784847498.0738,1652,4011,88,484
1784847498.0756,1664,4002,87,484
1784847498.0782,1682,3975,87,484
1784847498.0809,1679,3978,86,484
1784847498.0835,1686,3964,85,484
1784847498.0851,1709,3953,85,484
1784847498.0867,1733,3965,85,427
1784847498.0883,1698,3932,85,427
1784847498.0899,1612,3921,84,427
1784847498.0916,1637,3908,84,427
1784847498.0933,1647,3906,83,427
1784847498.0950,1654,3891,82,427
1784847498.0966,1680,3871,81,427
1784847498.0996,1699,3831,81,427
1784847498.1026,1710,3850,81,427
1784847498.1056,1720,3844,81,427
1784847498.1074,1728,3829,81,378
1784847498.1092,1731,3818,81,378
1784847498.1111,1741,3807,81,378
1784847498.1129,3167,3803,95,378
1784847498.1148,1604,3787,95,378
1784847498.1167,1648,3791,94,378
1784847498.1186,1668,3772,93,378
1784847498.1206,1669,3762,92,378
1784847498.1225,1688,3752,91,378
1784847498.1244,1698,3730,91,378
1784847498.1264,1701,3735,91,487
1784847498.1285,1673,3720,90,487
1784847498.1307,1610,3710,89,487
1784847498.1329,1621,3705,89,487
1784847498.1347,1649,3701,88,487
1784847498.1366,1666,3689,87,487
1784847498.1384,1682,3680,87,487
1784847498.1403,1684,3676,86,487
1784847498.1427,1696,3658,86,487
1784847498.1451,1733,3654,86,487
1784847498.1476,1713,3654,85,429
1784847498.1500,1715,3633,85,429
1784847498.1524,1740,3625,85,429
1784847498.1548,2217,3620,90,429
1784847498.1572,1621,3602,89,429
1784847498.1582,1647,3596,88,429
1784847498.1591,1657,3585,88,429
1784847498.1600,1676,3586,87,429
1784847498.1610,1684,3569,86,429
1784847498.1637,1687,3564,86,429
1784847498.1664,1705,3630,85,431
1784847498.1691,1677,3553,85,431
1784847498.1708,1621,3544,84,431
1784847498.1724,1619,3520,84,431
1784847498.1741,1648,3524,83,431
1784847498.1758,1675,3520,82,431
1784847498.1780,1683,3510,82,431
1784847498.1802,1689,3505,81,431
1784847498.1824,1702,3498,81,431
1784847498.1843,1712,3488,81,431
1784847498.1862,1721,3490,81,379
1784847498.1881,1687,3479,80,379
1784847498.1899,1621,3469,80,379
1784847498.1922,1644,3459,79,379
1784847498.1945,1651,3457,78,379
1784847498.1968,1661,3446,78,379
1784847498.1986,1674,3450,77,379
1784847498.2005,1705,3424,77,379
1784847498.2023,1718,3424,77,379
1784847498.2041,1712,3417,76,379
1784847498.2065,1716,3423,76,330
1784847498.2088,1718,3443,76,330
1784847498.2111,1615,3454,76,330
1784847498.2130,1636,3420,75,330
1784847498.2149,1648,3417,74,330
1784847498.2168,1675,3408,74,330
1784847498.2187,1696,3401,74,330
1784847498.2203,1705,3398,73,330
1784847498.2220,1704,3386,73,330
1784847498.2236,1719,3379,73,330
1784847498.2252,1718,3385,73,294
1784847498.2276,1692,3521,73,294
1784847498.2301,1617,3511,72,294
1784847498.2326,1625,3509,72,294
1784847498.2344,1651,3493,71,294
1784847498.2363,1694,3487,71,294
1784847498.2381,1680,3477,70,294
1784847498.2400,1690,3473,70,294
1784847498.2423,1704,3468,70,294
1784847498.2446,1706,3458,70,294
1784847498.2469,1718,3466,70,257
1784847498.2533,1679,3660,69,257
1784847498.2596,1595,3659,69,257
1784847498.2659,1635,3633,69,257
1784847498.2722,1641,3636,68,257
1784847498.2726,1650,3615,67,257
1784847498.2731,1680,3610,67,257
1784847498.2735,1696,3612,67,257
1784847498.2739,1706,3578,67,257
1784847498.2743,1708,3575,66,257
1784847498.2747,1715,3585,66,250
1784847498.2752,1715,3769,66,250
1784847498.2756,1602,3728,66,250
1784847498.2760,1616,3727,66,250
1784847498.2764,1643,3717,65,250
1784847498.2779,1667,3707,65,250
1784847498.2794,1672,3702,64,250
1784847498.2808,1688,3689,64,250
1784847498.2823,1684,3670,64,250
1784847498.2840,1710,3673,64,250
1784847498.2857,1728,3666,64,250
1784847498.2874,1804,3789,65,250
1784847498.2891,1612,3799,64,250
1784847498.2916,1651,3775,64,250
1784847498.2940,1637,3766,63,250
1784847498.2965,1648,3754,63,250
1784847498.2984,1661,3746,62,250
1784847498.3002,1684,3737,62,250
1784847498.3020,1690,3725,61,250
1784847498.3039,1698,3718,61,250
1784847498.3060,1699,3720,61,250
1784847498.3082,1700,3711,61,250
1784847498.3104,1620,3720,61,250
1784847498.3123,1634,3701,60,250
1784847498.3142,1641,3692,60,250
1784847498.3161,1649,3685,59,250
1784847498.3180,1667,3683,59,250
1784847498.3203,1678,3639,58,250
1784847498.3226,1697,3667,58,250
1784847498.3249,1710,3651,58,250
1784847498.3267,1731,3660,58,250
1784847498.3285,1663,3642,58,250
1784847498.3302,1603,3613,58,250
1784847498.3320,1636,3611,57,250
1784847498.3344,1660,3605,57,250
1784847498.3368,1663,3595,56,250
1784847498.3391,1679,3587,56,250
1784847498.3410,1683,3581,56,250
1784847498.3429,1728,3564,56,250
1784847498.3448,1712,3558,56,250
1784847498.3467,1718,3569,56,250
1784847498.3483,1693,3542,56,250
1784847498.3500,1626,3536,56,250
1784847498.3517,1643,3517,55,250
1784847498.3533,1661,3523,55,250
1784847498.3559,1667,3525,54,250
1784847498.3584,1680,3451,54,250
1784847498.3609,1709,3500,54,250
1784847498.3627,1712,3496,54,250
1784847498.3644,1713,3483,54,250
1784847498.3662,1718,3488,54,250
1784847498.3679,1700,3470,54,250
1784847498.3704,1635,3417,54,250
1784847498.3729,1639,3459,53,250
1784847498.3754,1661,3455,53,250
1784847498.3773,1681,3441,53,250
1784847498.3793,1688,3433,52,250
1784847498.3812,1693,3437,52,250
1784847498.3832,1704,3411,52,250
1784847498.3851,1726,3421,52,250
1784847498.3871,1736,3425,53,250
1784847498.3890,1693,3397,53,250
1784847498.3910,1628,3400,52,250
1784847498.3930,1647,3390,52,250
1784847498.3949,1659,3391,51,250
1784847498.3969,1677,3383,51,250
1784847498.3989,1677,3375,51,250
1784847498.4009,1704,3363,51,250
1784847498.4030,1707,3356,51,250
1784847498.4049,1738,3353,51,250
1784847498.4068,1722,3353,51,250
1784847498.4088,1719,3349,51,250
1784847498.4107,1640,3335,51,250
1784847498.4126,1650,3326,51,250
1784847498.4145,1658,3320,50,250
1784847498.4163,1666,3323,50,250
1784847498.4181,1693,3323,50,250
1784847498.4199,1711,3311,50,250
1784847498.4217,1702,3306,50,250
1784847498.4235,1716,3293,50,250
1784847498.4254,1747,3302,50,0
1784847498.4273,1702,3287,50,0
1784847498.4291,1631,3282,50,0
1784847498.4311,1655,3271,49,0
1784847498.4331,1666,3268,49,0
1784847498.4350,1688,3258,49,0
1784847498.4370,1689,3256,49,0
1784847498.4390,1699,3249,49,0
1784847498.4410,1714,3251,49,0
1784847498.4431,1732,3243,49,0
1784847498.4451,1730,3245,49,0
1784847498.4470,1714,3229,49,0
1784847498.4490,1660,3226,49,0
1784847498.4510,1668,3216,49,0
1784847498.4530,1677,3215,48,0
1784847498.4551,1678,3209,48,0
1784847498.4572,1694,3199,48,0
1784847498.4592,1708,3195,48,0
1784847498.4613,1712,3187,48,0
1784847498.4633,1711,3186,48,0
1784847498.4652,1719,3195,48,0
1784847498.4672,1709,3202,49,0
1784847498.4691,1650,3186,48,0
1784847498.4713,1650,3197,48,0
1784847498.4736,1670,3198,47,0
1784847498.4758,1679,3187,47,0
1784847498.4780,1692,3173,47,0
1784847498.4798,1697,3175,47,0
1784847498.4816,1704,3167,47,0
1784847498.4835,1722,3158,47,0
1784847498.4853,1721,3169,47,0
1784847498.4915,1691,3291,47,0
1784847498.4977,1634,3239,47,0
1784847498.5038,1638,3279,47,0
1784847498.5100,1670,3268,46,0
1784847498.5101,1674,3269,46,0
1784847498.5102,1677,3262,46,0
1784847498.5104,1693,3261,46,0
1784847498.5105,1707,3276,46,0
1784847498.5106,1705,3242,46,0
1784847498.5107,1711,3245,46,0
1784847498.5108,1720,3420,46,0
1784847498.5110,1636,3413,46,0
1784847498.5125,1644,3397,46,0
1784847498.5140,1653,3398,45,0
1784847498.5156,1659,3386,45,0
1784847498.5171,1678,3383,44,0
1784847498.5191,1687,3375,44,0
1784847498.5212,1701,3366,44,0
1784847498.5232,1715,3365,45,0
1784847498.5252,1721,3359,45,0
1784847498.5272,1695,3604,45,0
1784847498.5292,1615,3588,45,0
1784847498.5312,1621,3573,45,0
1784847498.5331,1653,3563,44,0
1784847498.5351,1659,3553,44,0
1784847498.5372,1668,3556,43,0
1784847498.5392,1694,3575,43,0
1784847498.5412,1697,3535,43,0
1784847498.5431,1712,3543,43,0
1784847498.5451,1713,3535,44,0
1784847498.5471,1685,3777,43,0
1784847498.5490,1616,3756,43,0
1784847498.5510,1631,3751,43,0
1784847498.5530,1643,3759,43,0
1784847498.5550,1653,3720,42,0
1784847498.5570,1663,3719,42,0
1784847498.5591,1691,3703,42,0
1784847498.5611,1690,3694,42,0
1784847498.5631,1703,3662,42,0
1784847498.5651,1711,3688,42,0
1784847498.5672,1709,3884,42,0
1784847498.5692,1604,3871,42,0
1784847498.5713,1610,3857,42,0
1784847498.5734,1636,3845,42,0
1784847498.5754,1662,3835,42,0
1784847498.5775,1677,3815,42,0
1784847498.5795,1676,3819,41,0
1784847498.5816,1683,3798,41,0
1784847498.5835,1723,3792,42,0
1784847498.5853,1724,3807,42,0
1784847498.5872,1689,3942,42,0
1784847498.5891,1588,3915,42,0
1784847498.5911,1618,3912,42,0
1784847498.5932,1630,3903,42,0
1784847498.5952,1647,3877,41,0
1784847498.5973,1663,3852,41,0
1784847498.5994,1681,3865,41,0
1784847498.6015,1691,3873,41,0
1784847498.6037,1698,3842,41,0
1784847498.6058,1713,3847,41,0
1784847498.6079,1672,3953,41,0
1784847498.6100,1600,3942,41,0
1784847498.6122,1622,3923,41,0
1784847498.6143,1635,3909,41,0
1784847498.6164,1646,3902,40,0
1784847498.6185,1672,3889,40,0
1784847498.6206,1676,3874,40,0
1784847498.6228,1692,3869,40,0
1784847498.6243,1710,3863,40,0
1784847498.6259,1723,3858,40,0
1784847498.6275,1667,4018,40,0
1784847498.6290,1595,3997,40,0
1784847498.6310,1616,3983,40,0
1784847498.6330,1633,3973,40,0
1784847498.6350,1655,3949,40,0
1784847498.6370,1667,3954,39,0
1784847498.6390,1678,3934,39,0
1784847498.6411,1700,3928,39,0
1784847498.6431,1698,3907,39,0
1784847498.6452,1703,3919,39,0
1784847498.6471,1670,4037,39,0
1784847498.6491,1586,4031,39,0
1784847498.6510,1624,4018,39,0
1784847498.6529,1630,3992,39,0
1784847498.6550,1643,3979,39,0
1784847498.6570,1665,3975,39,0
1784847498.6590,1678,3952,38,0
1784847498.6610,1686,3959,38,0
1784847498.6630,1716,3944,39,0
1784847498.6650,1711,3947,39,0
1784847498.6670,1680,3969,39,0
1784847498.6690,1602,3975,39,0
1784847498.6710,1621,3944,39,0
1784847498.6730,1638,3943,38,0
1784847498.6751,1655,3930,38,0
1784847498.6771,1671,3913,38,0
1784847498.6796,1681,3897,38,0
1784847498.6820,1695,3888,38,0
1784847498.6845,1717,3877,38,0
1784847498.6869,1717,3881,38,0
1784847498.6886,1685,3854,38,0
1784847498.6903,1610,3838,38,0
1784847498.6921,1634,3832,38,0
1784847498.6938,1658,3781,38,0
1784847498.6956,1659,3809,37,0
1784847498.6974,1668,3748,37,0
1784847498.6993,1681,3787,37,0
1784847498.7011,1706,3736,37,0
1784847498.7033,1712,3775,37,0
1784847498.7056,1715,3784,38,0
1784847498.7078,1682,3754,37,0
1784847498.7101,1616,3739,37,0
1784847498.7159,1622,3727,37,0
1784847498.7217,1642,3716,37,0
1784847498.7276,1669,3665,37,0
1784847498.7334,1676,3700,37,0
1784847498.7335,1680,3695,37,0
1784847498.7337,1702,3683,37,0
1784847498.7338,1712,3742,37,0
1784847498.7339,1723,3678,37,0
1784847498.7340,1741,3732,38,0
1784847498.7341,1616,3724,38,0
1784847498.7342,1631,3737,38,0
1784847498.7343,1639,3707,37,0
1784847498.7360,1667,3693,37,0
1784847498.7377,1675,3682,37,0
1784847498.7393,1683,3678,37,0
1784847498.7410,1702,3675,37,0
1784847498.7431,1714,3660,37,0
1784847498.7451,1720,3648,37,0
1784847498.7472,1987,3762,40,0
1784847498.7492,1606,3743,40,0
1784847498.7512,1626,3731,40,0
1784847498.7531,1642,3734,40,0
1784847498.7550,1663,3721,40,0
1784847498.7570,1660,3710,39,0
1784847498.7590,1699,3703,39,0
1784847498.7611,1701,3691,39,0
1784847498.7631,1707,3667,40,0
1784847498.7651,1712,3681,40,0
1784847498.7671,1684,3823,40,0
1784847498.7691,1604,3813,40,0
1784847498.7711,1614,3804,40,0
1784847498.7731,1640,3790,40,0
1784847498.7751,1664,3786,39,0
1784847498.7770,1663,3730,39,0
1784847498.7790,1682,3761,39,0
1784847498.7810,1694,3731,39,0
1784847498.7832,1713,3737,39,0
1784847498.7854,1722,3741,39,0
1784847498.7875,1686,3981,39,0
1784847498.7897,1583,3951,39,0
1784847498.7915,1621,3943,39,0
1784847498.7933,1642,3925,39,0
1784847498.7952,1655,3926,39,0
1784847498.7970,1659,3904,38,0
1784847498.7990,1687,3895,38,0
1784847498.8011,1701,3891,38,0
1784847498.8031,1700,3870,38,0
1784847498.8051,1723,3886,39,0
1784847498.8072,1695,4043,39,0
1784847498.8092,1605,4030,39,0
1784847498.8112,1613,4015,39,0
1784847498.8132,1621,4021,39,0
1784847498.8152,1653,3982,38,0
1784847498.8172,1660,3906,38,0
1784847498.8192,1680,3969,38,0
1784847498.8213,1677,3944,38,0
1784847498.8242,1707,3938,38,0
1784847498.8272,1738,3920,38,0
1784847498.8302,1746,3918,39,0
1784847498.8331,1598,3908,39,0
1784847498.8361,1613,3884,39,0
1784847498.8391,1648,3873,39,0
1784847498.8421,1670,3870,39,0
1784847498.8450,1679,3854,38,0
1784847498.8453,1686,3845,38,0
1784847498.8455,1702,3842,38,0
1784847498.8457,1717,3811,39,0
1784847498.8460,1712,3830,39,0
1784847498.8477,1665,3806,39,0
1784847498.8494,1608,3788,39,0
1784847498.8512,1643,3775,38,0
1784847498.8529,1660,3774,38,0
1784847498.8550,1674,3761,38,0
1784847498.8570,1702,3759,38,0
1784847498.8590,1704,3749,38,0
1784847498.8610,1711,3733,38,0
1784847498.8630,1721,3724,38,0
1784847498.8650,1714,3740,39,0
1784847498.8669,1707,3697,39,0
1784847498.8689,1623,3723,39,0
1784847498.8709,1626,3682,39,0
1784847498.8730,1651,3672,38,0
1784847498.8750,1673,3677,38,0
1784847498.8770,1689,3660,38,0
1784847498.8790,1698,3648,38,0
1784847498.8811,1701,3640,38,0
1784847498.8831,1713,3648,38,0
1784847498.8851,1725,3625,39,0
1784847498.8873,2201,3648,44,0
1784847498.8895,1505,3886,45,0
1784847498.8917,1615,3888,45,0
1784847498.8939,1625,3859,45,0
1784847498.8957,1648,3851,44,0
1784847498.8974,1654,3845,44,0
1784847498.8992,1671,3799,43,0
1784847498.9010,1698,3827,43,0
1784847498.9029,1695,3794,43,0
1784847498.9049,1704,3825,43,0
1784847498.9068,1660,4081,43,0
1784847498.9088,1593,4076,43,0
1784847498.9108,1607,4055,43,0
1784847498.9128,1619,4050,43,0
1784847498.9148,1660,4040,43,0
1784847498.9168,1669,4033,43,0
1784847498.9188,1682,4005,42,0
1784847498.9209,1695,3988,42,0
1784847498.9229,1705,3972,42,0
1784847498.9249,1724,3987,43,0
1784847498.9269,1656,4095,42,0
1784847498.9289,1575,4095,43,0
1784847498.9308,1587,4095,43,0
1784847498.9328,1619,4095,43,0
1784847498.9372,1650,4095,42,0
1784847498.9417,1665,4029,42,0
1784847498.9461,1675,4095,42,0
1784847498.9505,1697,4095,42,0
1784847498.9507,1704,4095,42,0
1784847498.9509,1717,4093,42,0
1784847498.9511,1665,4095,42,0
1784847498.9512,1587,4095,42,0
1784847498.9526,1616,4095,42,0
1784847498.9540,1625,4095,42,0
1784847498.9554,1646,4095,42,0
1784847498.9568,1659,4095,41,0
1784847498.9588,1680,4091,41,0
1784847498.9608,1688,4095,41,0
1784847498.9629,1696,4092,41,0
1784847498.9649,1715,4088,41,0
1784847498.9669,1676,4095,41,0
1784847498.9689,1591,4077,41,0
1784847498.9709,1590,4095,41,0
1784847498.9729,1636,4095,41,0
1784847498.9749,1661,4085,41,0
1784847498.9768,1668,4074,41,0
1784847498.9788,1668,4060,40,0
1784847498.9808,1705,4050,40,0
1784847498.9831,1716,4034,41,0
1784847498.9853,1722,4043,41,0
1784847498.9876,1669,4095,41,0
1784847498.9898,1589,4095,41,0
1784847498.9917,1618,4091,41,0
1784847498.9936,1636,4080,40,0
1784847498.9954,1650,4068,40,0
1784847498.9973,1661,4064,40,0
1784847498.9994,1679,4045,40,0
1784847499.0015,1691,3981,40,0
1784847499.0035,1710,4024,40,0
1784847499.0056,1704,4039,40,0
1784847499.0075,1692,4082,40,0
1784847499.0093,1605,4075,40,0
1784847499.0111,1617,4062,40,0
1784847499.0130,1630,4043,40,0
1784847499.0150,1655,4029,39,0
1784847499.0170,1670,4013,39,0
1784847499.0190,1680,4003,39,0
1784847499.0210,1692,3988,39,0
1784847499.0233,1710,3983,39,0
1784847499.0256,1712,4000,39,0
1784847499.0278,1673,4066,39,0
1784847499.0301,1600,4050,39,0
1784847499.0321,1615,4040,39,0
1784847499.0341,1622,4042,39,0
1784847499.0361,1644,4006,39,0
1784847499.0380,1672,4014,39,0
1784847499.0400,1674,3978,38,0
1784847499.0420,1692,3979,38,0
1784847499.0440,1722,3963,39,0
1784847499.0459,1725,3968,39,0
1784847499.0477,1655,4095,39,0
1784847499.0494,1593,4087,39,0
1784847499.0511,1629,4063,39,0
1784847499.0528,1640,4042,38,0
1784847499.0548,1647,4035,38,0
1784847499.0568,1667,4040,38,0
1784847499.0588,1681,4016,38,0
1784847499.0609,1678,3994,38,0
1784847499.0629,1702,4004,38,0
1784847499.0648,1727,4002,38,0
1784847499.0668,1703,4095,38,0
1784847499.0688,1595,4095,38,0
1784847499.0709,1603,4095,38,0
1784847499.0729,1624,4095,38,0
1784847499.0749,1647,4095,38,0
1784847499.0769,1663,4095,38,0
1784847499.0789,1674,4095,38,0
1784847499.0810,1683,4095,37,0
1784847499.0830,1709,4095,38,0
1784847499.0850,1721,4095,38,0
1784847499.0871,2204,4095,43,0
1784847499.0891,1586,4095,43,0
1784847499.0911,1586,4095,43,0
1784847499.0932,1629,4095,43,0
1784847499.0954,1651,4095,43,0
1784847499.0975,1655,4091,42,0
1784847499.0997,1675,4095,42,0
1784847499.1019,1717,4086,42,0
1784847499.1039,1700,4082,42,0
1784847499.1059,1692,4065,42,0
1784847499.1078,2517,4050,51,0
1784847499.1098,1606,4037,51,0
1784847499.1117,1613,4021,50,0
1784847499.1135,1620,4014,50,0
1784847499.1153,1630,3997,50,0
1784847499.1171,1668,3987,50,0
1784847499.1192,1681,3977,49,0
1784847499.1212,1691,3969,49,0
1784847499.1232,1709,3940,49,0
1784847499.1252,1720,3961,49,0
1784847499.1274,1693,3929,49,0
1784847499.1296,1599,3928,49,0
1784847499.1317,1610,3923,49,0
1784847499.1339,1650,3885,49,0
1784847499.1361,1663,3885,49,0
1784847499.1383,1664,3871,48,0
1784847499.1404,1679,3870,48,0
1784847499.1426,1697,3863,48,0
1784847499.1442,1712,3848,48,0
1784847499.1458,1714,3840,48,0
1784847499.1474,1691,3832,48,0
1784847499.1489,1611,3797,48,0
1784847499.1510,1645,3794,47,0
1784847499.1530,1644,3728,47,0
1784847499.1550,1648,3779,47,0
1784847499.1570,1680,3766,46,0
1784847499.1590,1690,3764,46,0
1784847499.1610,1689,3750,46,0
1784847499.1631,1708,3737,46,0
1784847499.1651,1707,3732,46,0
1784847499.1671,1702,3718,46,0
1784847499.1691,1633,3702,46,0
1784847499.1711,1617,3707,46,0
1784847499.1730,1755,3690,46,0
1784847499.1750,1653,3696,46,0
1784847499.1770,1677,3677,46,0
1784847499.1791,1682,3668,46,0
1784847499.1811,1690,3659,45,0
1784847499.1830,1720,3649,46,0
1784847499.1850,1730,3652,46,0
1784847499.1870,1701,3682,46,0
1784847499.1890,1617,3623,46,0
1784847499.1910,1749,3616,46,0
1784847499.1930,1650,3607,46,0
1784847499.1950,1662,3603,46,0
1784847499.1971,1662,3587,45,0
1784847499.1993,1681,3574,45,0
1784847499.2016,1774,3567,46,0
1784847499.2039,1694,3552,46,0
1784847499.2062,1707,3573,46,0
1784847499.2079,1659,4036,45,0
1784847499.2097,1600,4011,45,0
1784847499.2114,1768,3987,46,0
1784847499.2132,1603,3982,46,0
1784847499.2152,1626,3974,46,0
1784847499.2173,1648,3959,45,0
1784847499.2193,1646,3933,45,0
1784847499.2213,1749,3933,46,0
1784847499.2233,1679,3925,45,0
1784847499.2253,1698,3910,45,0
1784847499.2272,3321,4061,62,0
1784847499.2292,1437,4025,63,0
1784847499.2312,1535,4019,64,0
1784847499.2333,1475,4004,65,0
1784847499.2353,1510,3996,66,0
1784847499.2373,1523,3967,66,0
1784847499.2399,1560,3964,67,0
1784847499.2424,1762,3956,67,0
1784847499.2449,1610,3938,67,0
1784847499.2474,1626,3943,66,0
1784847499.2499,1617,4056,66,0
1784847499.2525,1724,4049,66,0
1784847499.2550,1787,4034,67,0
1784847499.2575,1529,4013,67,0
1784847499.2584,1575,4023,67,0
1784847499.2592,1605,3967,67,0
1784847499.2601,1606,3988,67,0
1784847499.2609,1768,3978,68,0
1784847499.2629,1642,3963,67,0
1784847499.2649,1671,3988,67,0
1784847499.2669,1658,4037,66,0
1784847499.2689,1714,4008,66,0
1784847499.2709,1789,4015,66,0
1784847499.2729,1593,3998,66,0
1784847499.2749,1626,3999,66,0
1784847499.2769,1621,3971,66,0
1784847499.2790,1626,3961,65,0
1784847499.2810,1858,3954,67,0
1784847499.2831,1648,3945,66,0
1784847499.2851,1683,3928,66,0
1784847499.2871,1746,4095,66,0
1784847499.2891,1535,4095,67,0
1784847499.2911,1818,4095,67,0
1784847499.2931,1596,4095,67,0
1784847499.2951,1620,4095,67,0
1784847499.2970,1628,4095,67,0
1784847499.2990,1646,4090,66,0
1784847499.3010,1801,4082,67,0
1784847499.3032,1681,4073,66,0
1784847499.3054,1684,4062,66,0
1784847499.3076,1632,4095,66,0
1784847499.3098,1571,4095,66,0
1784847499.3117,1807,4085,67,0
1784847499.3137,1586,4063,67,0
1784847499.3156,1623,4055,66,0
1784847499.3175,1636,4062,66,0
1784847499.3195,1639,4025,65,0
1784847499.3215,1877,4019,67,0
1784847499.3235,1652,4003,66,0
1784847499.3256,1687,4020,66,0
1784847499.3274,1638,4056,65,0
1784847499.3293,1568,4030,66,0
1784847499.3311,1724,4030,66,0
1784847499.3330,1598,4030,66,0
1784847499.3350,1634,4007,65,0
1784847499.3370,1650,3990,65,0
1784847499.3390,1656,3977,64,0
1784847499.3410,1904,3983,66,0
1784847499.3463,1676,3958,65,0
1784847499.3516,1689,3975,65,0
1784847499.3568,1656,4095,64,0
1784847499.3621,1535,4095,65,0
1784847499.3623,1722,4095,65,0
1784847499.3625,1596,4095,65,0
1784847499.3626,1620,4095,65,0
1784847499.3628,1633,4095,64,0
1784847499.3633,1783,4095,65,0
1784847499.3638,1899,4095,67,0
1784847499.3643,1646,4095,66,0
1784847499.3649,1677,4095,66,0
1784847499.3668,1617,4095,65,0
1784847499.3688,1534,4095,66,0
1784847499.3708,1834,4095,67,0
1784847499.3727,1577,4095,67,0
1784847499.3747,1610,4095,67,0
1784847499.3767,1613,4095,67,0
1784847499.3787,1619,4095,66,0
1784847499.3807,1926,4095,68,0
1784847499.3828,1632,4095,68,0
1784847499.3848,1664,4095,67,0
1784847499.3868,1629,4095,67,0
1784847499.3888,1544,4095,67,0
1784847499.3909,1579,4095,67,0
1784847499.3929,1619,4095,67,0
1784847499.3950,1648,4095,66,0
1784847499.3971,1650,4095,66,0
1784847499.3991,1678,4092,65,0
1784847499.4012,1698,4087,65,0
1784847499.4032,1700,4081,65,0
1784847499.4053,1722,4067,65,0
1784847499.4073,2145,4055,69,0
1784847499.4093,1597,4036,69,0
1784847499.4112,1632,4019,69,0
1784847499.4132,1643,4021,68,0
1784847499.4152,1646,3998,67,0
1784847499.4171,1677,3994,67,0
1784847499.4190,1697,3985,67,0
1784847499.4210,1687,3968,66,0
1784847499.4238,1702,3983,66,0
1784847499.4266,1727,3966,66,0
1784847499.4295,1682,3923,66,0
1784847499.4323,1614,3914,66,0
1784847499.4351,1631,3905,65,0
1784847499.4380,1640,3882,65,0
1784847499.4408,1667,3899,64,0
1784847499.4436,1673,3874,64,0
1784847499.4440,1678,3862,63,0
1784847499.4443,1708,3854,63,0
1784847499.4447,1719,3840,63,0
1784847499.4450,1731,3819,63,0
1784847499.4470,1703,3854,63,0
1784847499.4489,1611,3842,63,0
1784847499.4509,1632,3823,62,0
1784847499.4528,1650,3817,62,0
1784847499.4548,1657,3806,61,0
1784847499.4569,1677,3790,61,0
1784847499.4589,1697,3783,61,0
1784847499.4609,1698,3779,60,0
1784847499.4629,1704,3750,60,0
1784847499.4649,1715,3743,60,0
1784847499.4669,1742,3749,61,0
1784847499.4688,2087,3761,64,0
1784847499.4709,1613,3749,64,0
1784847499.4729,1620,3735,64,0
1784847499.4749,1646,3727,63,0
1784847499.4769,1670,3726,63,0
1784847499.4790,1684,3714,62,0
1784847499.4811,1690,3706,62,0
1784847499.4832,1698,3694,62,0
1784847499.4853,1718,3690,62,0
1784847499.4873,1693,3679,62,0
1784847499.4893,1602,3665,62,0
1784847499.4913,1626,3657,61,0
1784847499.4933,1643,3656,61,0
1784847499.4952,1652,3638,60,0
1784847499.4972,1663,3638,60,0
1784847499.4992,1702,3621,59,0
1784847499.5012,1710,3616,59,0
1784847499.5060,1713,3604,59,0
1784847499.5108,1712,3599,59,0
1784847499.5156,1666,3653,59,0
1784847499.5205,1618,3646,59,0
1784847499.5211,1629,3633,58,0
1784847499.5216,1644,3621,58,0
1784847499.5222,1659,3616,57,0
1784847499.5228,1676,3608,57,0
1784847499.5233,1689,3587,57,0
1784847499.5238,1693,3593,56,0
1784847499.5243,1705,3581,56,0
1784847499.5248,1732,3588,57,0
1784847499.5268,1690,3782,56,0
1784847499.5288,1594,3770,56,0
1784847499.5308,1613,3760,56,0
1784847499.5328,1657,3752,56,0
1784847499.5348,1674,3731,55,0
1784847499.5368,1672,3724,55,0
1784847499.5388,1687,3715,55,0
1784847499.5408,1708,3712,55,0
1784847499.5428,1712,3697,55,0
1784847499.5448,1711,3705,55,0
1784847499.5468,1678,4016,54,0
1784847499.5488,1597,3993,54,0
1784847499.5508,1621,3976,54,0
1784847499.5528,1630,3969,54,0
1784847499.5548,1648,3950,53,0
1784847499.5568,1661,3944,53,0
1784847499.5589,1679,3927,53,0
1784847499.5610,1697,3921,52,0
1784847499.5630,1711,3909,52,0
1784847499.5651,1719,3916,53,0
1784847499.5670,1681,4095,52,0
1784847499.5690,1589,4095,52,0
1784847499.5709,1595,4095,53,0
1784847499.5728,1617,4095,52,0
1784847499.5748,1646,4095,52,0
1784847499.5768,1664,4095,52,0
1784847499.5788,1671,4095,51,0
1784847499.5808,1682,4095,51,0
1784847499.5829,1698,4095,51,0
1784847499.5849,1717,4095,51,0
1784847499.5870,1669,4095,50,0
1784847499.5891,1556,4095,51,0
1784847499.5910,1585,4095,51,0
1784847499.5930,1616,4095,51,0
1784847499.5950,1617,4095,51,0
1784847499.5970,1643,4095,51,0
1784847499.6007,1662,4095,50,0
1784847499.6043,1695,4095,50,0
1784847499.6079,1705,4095,50,0
1784847499.6115,1699,4095,50,0
1784847499.6152,1670,4095,50,0
1784847499.6188,1553,4095,50,0
1784847499.6224,1577,4095,50,0
1784847499.6261,1599,4095,50,0
1784847499.6264,1629,4095,50,0
1784847499.6268,1647,4095,50,0
1784847499.6272,1652,4095,49,0
1784847499.6276,1680,4095,49,0
1784847499.6280,1688,4095,49,0
1784847499.6283,1699,4095,49,0
1784847499.6287,1763,4095,49,0
1784847499.6291,1529,4095,50,0
1784847499.6311,1562,4095,51,0
1784847499.6330,1593,4095,51,0
1784847499.6349,1614,4095,51,0
1784847499.6369,1640,4095,50,0
1784847499.6389,1649,4095,50,0
1784847499.6409,1678,4095,50,0
1784847499.6428,1698,4095,49,0
1784847499.6448,1699,4095,49,0
1784847499.6469,1650,4095,49,0
1784847499.6489,1519,4095,50,0
1784847499.6509,1555,4095,50,0
1784847499.6530,1589,4095,51,0
1784847499.6550,1596,4095,51,0
1784847499.6571,1625,4095,50,0
1784847499.6592,1655,4095,50,0
1784847499.6612,1666,4095,49,0
1784847499.6631,1678,4095,49,0
1784847499.6650,1691,4095,49,0
1784847499.6670,1717,4095,49,0
1784847499.6689,1732,4095,49,0
1784847499.6709,2086,4095,53,0
1784847499.6729,1539,4095,54,0
1784847499.6748,1568,4095,54,0
1784847499.6768,1580,4095,54,0
1784847499.6788,1617,4095,54,0
1784847499.6808,1623,4095,54,0
1784847499.6828,1656,4095,54,0
1784847499.6848,1673,4095,53,0
1784847499.6868,1618,4095,53,0
1784847499.6888,1479,4095,54,0
1784847499.6908,1516,4095,55,0
1784847499.6928,1557,4095,56,0
1784847499.6949,1568,4095,56,0
1784847499.6969,1588,4095,56,0
1784847499.6990,1628,4095,56,0
1784847499.7011,1653,4095,55,0
1784847499.7030,1663,4095,55,0
1784847499.7049,1680,4095,54,0
1784847499.7068,1611,4095,54,0
1784847499.7087,1492,4095,55,0
1784847499.7109,1527,4095,56,0
1784847499.7130,1545,4095,57,0
1784847499.7152,1580,4095,57,0
1784847499.7174,1623,4095,57,0
1784847499.7196,1652,4095,56,0
1784847499.7218,1651,4095,56,0
1784847499.7239,1669,4095,55,0
1784847499.7261,1692,4095,55,0
1784847499.7277,1671,4095,54,0
1784847499.7294,1491,4095,56,0
1784847499.7310,1522,4095,56,0
1784847499.7327,1540,4095,57,0
1784847499.7347,1590,4095,57,0
1784847499.7367,1615,4095,57,0
1784847499.7386,1639,4095,56,0
1784847499.7406,1666,4095,56,0
1784847499.7426,1686,4095,56,0
1784847499.7446,1698,4095,56,0
1784847499.7466,1638,4095,55,0
1784847499.7486,1485,4095,56,0
1784847499.7506,1519,4095,57,0
1784847499.7527,1554,4095,58,0
1784847499.7547,1559,4095,58,0
1784847499.7567,1610,4095,58,0
1784847499.7587,1637,4095,57,0
1784847499.7607,1664,4095,57,0
1784847499.7627,1672,4095,57,0
1784847499.7647,1690,4095,56,0
1784847499.7667,1621,4095,56,0
1784847499.7687,1483,4095,57,0
1784847499.7707,1510,4095,58,0
1784847499.7727,1535,4095,59,0
1784847499.7747,1583,4095,59,0
1784847499.7767,1611,4095,59,0
1784847499.7787,1627,4095,58,0
1784847499.7807,1635,4095,58,0
1784847499.7827,1681,4095,58,0
1784847499.7847,1705,4095,58,0
1784847499.7867,1679,4095,57,0
1784847499.7887,1467,4095,59,0
1784847499.7921,1497,4095,60,0
1784847499.7955,1535,4095,60,0
1784847499.7989,1572,4095,60,0
1784847499.8024,1595,4095,60,0
1784847499.8029,1638,4095,60,0
1784847499.8035,1673,4095,60,0
1784847499.8041,1671,4095,59,0
1784847499.8047,1695,4095,59,0
1784847499.8067,1666,4095,58,0
1784847499.8087,1484,4095,60,0
1784847499.8107,1510,4095,60,0
1784847499.8127,1533,4095,61,0
1784847499.8147,1578,4095,61,0
1784847499.8167,1578,4095,61,0
1784847499.8186,1627,4095,61,0
1784847499.8206,1648,4095,60,0
1784847499.8227,1681,4095,60,0
1784847499.8248,1692,4095,60,0
1784847499.8268,1678,4095,60,0
1784847499.8289,1471,4095,61,0
1784847499.8309,1507,4095,62,0
1784847499.8328,1535,4095,62,0
1784847499.8348,1584,4095,62,0
1784847499.8367,1615,4095,62,0
1784847499.8388,1634,4095,62,0
1784847499.8409,1660,4095,61,0
1784847499.8430,1676,4095,61,0
1784847499.8451,1698,4095,60,0
1784847499.8470,4011,4095,83,0
1784847499.8489,1451,4095,85,0
1784847499.8508,1519,4095,85,0
1784847499.8526,1535,4095,86,0
1784847499.8547,1564,4095,86,0
1784847499.8567,1607,4095,85,0
1784847499.8587,1642,4095,84,0
1784847499.8607,1657,4095,84,0
1784847499.8627,1657,4095,83,0
1784847499.8647,1703,4095,82,0
1784847499.8667,1659,4095,82,0
1784847499.8686,1492,4095,82,0
1784847499.8719,1518,4095,83,0
1784847499.8751,1535,4095,83,0
1784847499.8783,1596,4095,83,0
1784847499.8816,1612,4095,83,0
1784847499.8823,1624,4095,82,0
1784847499.8831,1646,4095,81,0
1784847499.8839,1680,4095,81,0
1784847499.8847,1697,4095,81,0
1784847499.8866,1746,4095,81,0
1784847499.8886,1473,4095,82,0
1784847499.8906,1520,4095,82,0
1784847499.8926,1542,4095,82,0
1784847499.8946,1587,4095,82,0
1784847499.8966,1599,4095,82,0
1784847499.8986,1634,4095,81,0
1784847499.9006,1668,4095,81,0
1784847499.9032,1683,4095,80,0
1784847499.9058,1687,4095,80,0
1784847499.9083,4032,4095,103,0
1784847499.9103,1461,4095,104,0
1784847499.9123,1506,4095,104,0
1784847499.9143,1530,4095,104,0
1784847499.9163,1582,4095,104,0
1784847499.9182,1612,4095,103,0
1784847499.9200,1629,4095,103,0
1784847499.9218,1657,4095,102,0
1784847499.9236,1675,4095,101,0
1784847499.9266,1686,4095,100,0
1784847499.9296,1701,4095,99,0
1784847499.9330,1729,4095,99,0
1784847499.9364,3848,4095,120,0
1784847499.9398,1464,4095,121,0
1784847499.9432,1516,4095,121,0
1784847499.9434,1539,4095,121,0
1784847499.9435,1592,4095,120,0
1784847499.9436,1613,4095,120,0
1784847499.9437,1650,4095,119,0
1784847499.9458,1656,4095,117,781
1784847499.9480,1599,4095,117,781
1784847499.9501,1444,4095,118,781
1784847499.9518,1486,4095,118,781
1784847499.9535,1517,4095,118,781
1784847499.9552,1535,4095,118,781
1784847499.9569,1584,4095,118,781
1784847499.9593,1616,4095,117,781
1784847499.9616,1651,4095,116,781
1784847499.9640,1654,4095,115,781
1784847499.9661,1675,4095,114,744
1784847499.9683,1668,4095,113,744
1784847499.9704,1470,4095,114,744
1784847499.9721,1490,4095,114,744
1784847499.9739,1547,4095,114,744
1784847499.9756,1573,4095,114,744
1784847499.9774,1601,4095,113,744
1784847499.9796,1624,4095,112,744
1784847499.9817,1654,4095,111,744
1784847499.9839,1687,4095,110,744
1784847499.9861,1709,4095,110,699
1784847499.9883,1625,4095,109,699
1784847499.9905,1468,4095,110,699
1784847499.9924,1522,4095,110,699
1784847499.9942,1561,4095,110,699
1784847499.9961,1585,4095,110,699
1784847499.9980,1599,4095,109,699
1784847500.0002,1632,4095,108,699
1784847500.0024,1664,4095,107,699
1784847500.0047,1677,4095,106,699
1784847500.0066,1688,4095,106,652
1784847500.0086,2384,4095,112,652
1784847500.0106,1332,4095,114,652
1784847500.0171,1501,4095,114,652
1784847500.0173,1521,4095,114,652
1784847500.0175,1565,4095,114,652
1784847500.0176,1595,4095,114,652
1784847500.0200,1615,4095,113,652
1784847500.0225,1640,4095,112,652
1784847500.0249,1663,4095,111,652
1784847500.0267,1682,4095,110,702
1784847500.0285,1628,4095,109,702
1784847500.0302,1451,4095,110,702
1784847500.0320,1498,4095,111,702
1784847500.0342,1535,4095,111,702
1784847500.0363,1588,4095,110,702
1784847500.0385,1601,4095,110,702
1784847500.0406,1621,4095,109,702
1784847500.0427,1651,4095,108,702
1784847500.0449,1677,4095,107,702
1784847500.0466,1694,4095,106,662
1784847500.0483,1710,4095,106,662
1784847500.0501,4055,4095,129,662
1784847500.0518,1458,4095,130,662
1784847500.0541,1505,4095,130,662
1784847500.0563,1528,4095,130,662
1784847500.0585,1568,4095,129,662
1784847500.0636,1602,4095,129,662
1784847500.0687,1621,4095,128,662
1784847500.0738,1673,4095,126,662
1784847500.0740,1683,4095,125,871
1784847500.0741,3000,4095,138,871
1784847500.0743,1433,4095,139,871
1784847500.0745,1485,4095,139,871
1784847500.0758,1512,4095,139,871
1784847500.0771,1568,4095,138,871
1784847500.0784,1597,4095,138,871
1784847500.0801,1606,4095,137,871
1784847500.0818,1624,4095,136,871
1784847500.0834,1661,4095,134,871
1784847500.0851,1679,4095,133,956
1784847500.0874,1715,4095,132,956
1784847500.0897,3952,4095,154,956
1784847500.0921,1438,4095,155,956
1784847500.0943,1498,4095,155,956
1784847500.0965,1533,4095,154,956
1784847500.0987,1574,4095,154,956
1784847500.1004,1596,4095,153,956
1784847500.1021,1634,4095,151,956
1784847500.1038,1649,4095,150,956
1784847500.1056,1667,4095,149,1000
1784847500.1077,1587,4095,148,1000
1784847500.1098,1457,4095,148,1000
1784847500.1120,1487,4095,149,1000
1784847500.1141,1512,4095,149,1000
1784847500.1162,1535,4095,148,1000
1784847500.1184,1597,4095,147,1000
1784847500.1206,1624,4095,146,1000
1784847500.1229,1648,4095,145,1000
1784847500.1252,1655,4095,143,1000
1784847500.1272,1698,4095,142,1000
1784847500.1293,3915,4095,163,1000
1784847500.1313,1439,4095,164,1000
1784847500.1330,1482,4095,164,1000
1784847500.1347,1532,4095,164,1000
1784847500.1364,1576,4095,163,1000
1784847500.1381,1594,4095,162,1000
1784847500.1409,1617,4095,161,1000
1784847500.1438,1650,4095,159,1000
1784847500.1466,1689,4095,158,1000
1784847500.1495,1685,4095,157,1000
1784847500.1523,1593,4095,156,1000
1784847500.1552,1469,4095,156,1000
1784847500.1557,1502,4095,156,1000
1784847500.1562,1535,4095,156,1000
1784847500.1567,1570,4095,155,1000
1784847500.1587,1592,4095,154,1000
1784847500.1608,1648,4095,153,1000
1784847500.1629,1655,4095,151,1000
1784847500.1645,1673,4095,150,1000
1784847500.1662,1691,4095,148,1000
1784847500.1679,1620,4095,147,1000
1784847500.1696,1474,4095,148,1000
1784847500.1717,1503,4095,148,1000
1784847500.1738,1534,4095,148,1000
1784847500.1759,1577,4095,147,1000
1784847500.1780,1617,4095,146,1000
1784847500.1801,1632,4095,145,1000
1784847500.1822,1647,4095,143,1000
1784847500.1844,1676,4095,142,1000
1784847500.1865,1702,4095,141,1000
1784847500.1886,1672,4095,140,1000
1784847500.1907,1464,4095,140,1000
1784847500.1928,1507,4095,140,1000
1784847500.1949,1535,4095,140,1000
1784847500.1967,1583,4095,139,1000
1784847500.1985,1599,4095,139,1000
1784847500.2003,1627,4095,138,1000
1784847500.2021,1664,4095,136,1000
1784847500.2043,1679,4095,135,1000
1784847500.2064,1685,4095,134,965
1784847500.2086,1671,4095,133,965
1784847500.2106,1489,4095,133,965
1784847500.2127,1518,4095,133,965
1784847500.2147,1538,4095,133,965
1784847500.2165,1571,4095,133,965
1784847500.2183,1617,4095,132,965
1784847500.2201,1649,4095,130,965
1784847500.2219,1650,4095,129,965
1784847500.2241,1669,4095,128,965
1784847500.2264,1693,4095,127,888
1784847500.2286,1651,4095,126,888
1784847500.2310,1475,4095,126,888
1784847500.2333,1508,4095,127,888
1784847500.2357,1535,4095,127,888
1784847500.2395,1585,4095,126,888
1784847500.2434,1605,4095,125,888
1784847500.2472,1621,4095,124,888
1784847500.2511,1657,4095,123,888
1784847500.2513,1686,4095,122,888
1784847500.2515,1692,4095,121,825
1784847500.2518,1634,4095,120,825
1784847500.2528,1472,4095,121,825
1784847500.2538,1526,4095,121,825
1784847500.2549,1562,4095,121,825
1784847500.2612,1575,4095,120,825
1784847500.2614,1615,4095,120,825
1784847500.2617,1648,4095,118,825
1784847500.2619,1658,4095,117,825
1784847500.2642,1674,4095,116,825
1784847500.2665,1684,4095,115,760
1784847500.2687,2997,4095,128,760
1784847500.2704,1343,4095,129,760
1784847500.2721,1502,4095,130,760
1784847500.2738,1521,4095,130,760
1784847500.2755,1576,4095,129,760
1784847500.2777,1598,4095,129,760
1784847500.2799,1625,4095,128,760
1784847500.2821,1635,4095,126,760
1784847500.2843,1663,4095,125,760
1784847500.2865,1698,4095,124,860
1784847500.2888,1712,4095,124,860
1784847500.2905,1460,4095,124,860
1784847500.2922,1489,4095,125,860
1784847500.2940,1575,4095,124,860
1784847500.2957,1567,4095,124,860
1784847500.2981,1599,4095,123,860
1784847500.3004,1629,4095,122,860
1784847500.3027,1650,4095,121,860
1784847500.3049,1670,4095,120,860
1784847500.3072,1683,4095,119,803
1784847500.3094,4095,4095,142,803
1784847500.3111,1394,4095,144,803
1784847500.3128,1492,4095,144,803
1784847500.3145,1521,4095,144,803
1784847500.3162,1551,4095,143,803
1784847500.3184,1590,4095,143,803
1784847500.3206,1629,4095,141,803
1784847500.3227,1647,4095,140,803
1784847500.3249,1661,4095,139,803
1784847500.3271,1694,4095,138,1000
1784847500.3293,1626,4095,137,1000
1784847500.3316,1464,4095,137,1000
1784847500.3339,1489,4095,138,1000
1784847500.3362,1535,4095,137,1000
1784847500.3385,1583,4095,137,1000
1784847500.3408,1599,4095,136,1000
1784847500.3431,1621,4095,135,1000
1784847500.3454,1655,4095,134,1000
1784847500.3477,1678,4095,132,1000
1784847500.3500,1677,4095,131,935
1784847500.3523,3973,4095,153,935
1784847500.3532,1339,4095,155,935
1784847500.3540,1505,4095,155,935
1784847500.3549,1539,4095,154,935
1784847500.3612,1569,4095,154,935
1784847500.3615,1599,4095,153,935
1784847500.3617,1635,4095,151,935
1784847500.3620,1654,4095,150,935
1784847500.3642,1663,4095,148,935
1784847500.3664,1695,4095,147,1000
1784847500.3686,1661,4095,146,1000
1784847500.3707,1478,4095,146,1000
1784847500.3727,1511,4095,146,1000
1784847500.3748,1535,4095,146,1000
1784847500.3770,1590,4095,145,1000
1784847500.3792,1619,4095,144,1000
1784847500.3815,1623,4095,143,1000
1784847500.3870,1654,4095,142,1000
1784847500.3873,1680,4095,140,1000
1784847500.3876,1708,4095,140,1000
1784847500.3879,2837,4095,150,1000
1784847500.3900,1484,4095,150,1000
1784847500.3922,1525,4095,150,1000
1784847500.3943,1553,4095,149,1000
1784847500.3964,1572,4095,149,1000
1784847500.3985,1596,4095,148,1000
1784847500.4006,1630,4095,147,1000
1784847500.4027,1665,4095,145,1000
1784847500.4048,1676,4095,144,1000
1784847500.4069,1681,4095,143,1000
1784847500.4091,2108,4095,146,1000
1784847500.4113,1126,4095,150,1000
1784847500.4134,1300,4095,152,1000
1784847500.4190,1341,4095,154,1000
1784847500.4193,1393,4095,155,1000
1784847500.4196,1451,4095,155,1000
1784847500.4199,1500,4095,155,1000
1784847500.4222,1534,4095,155,1000
1784847500.4245,1570,4095,154,1000
1784847500.4269,1616,4095,153,1000
1784847500.4289,1649,4095,151,1000
1784847500.4310,1669,4095,150,1000
1784847500.4330,1896,4095,151,1000
1784847500.4350,1477,4095,151,1000
1784847500.4371,1519,4095,151,1000
1784847500.4391,1535,4095,151,1000
1784847500.4416,1578,4095,150,1000
1784847500.4440,1627,4095,149,1000
1784847500.4464,1654,4095,147,1000
1784847500.4489,1673,4095,146,1000
1784847500.4513,1678,4095,145,1000
1784847500.4538,1813,4095,145,1000
1784847500.4562,1505,4095,145,1000
1784847500.4587,1522,4095,145,1000
1784847500.4611,1535,4095,145,1000
1784847500.4636,1596,4095,144,1000
1784847500.4639,1625,4095,143,1000
1784847500.4641,1647,4095,141,1000
1784847500.4644,1658,4095,140,1000
1784847500.4665,1714,4095,139,1000
1784847500.4687,1654,4095,138,1000
1784847500.4708,1505,4095,138,1000
1784847500.4730,1517,4095,138,1000
1784847500.4752,1555,4095,138,1000
1784847500.4775,1598,4095,137,1000
1784847500.4831,1630,4095,136,1000
1784847500.4834,1641,4095,134,1000
1784847500.4836,1653,4095,133,1000
1784847500.4839,1686,4095,132,1000
1784847500.4861,1711,4095,131,935
1784847500.4883,1713,4095,131,935
1784847500.4905,1726,4095,130,935
1784847500.4927,1743,4095,129,935
1784847500.4949,3900,4095,151,935
1784847500.4971,1501,4095,151,935
1784847500.4988,1532,4095,150,935
1784847500.5006,1571,4095,150,935
1784847500.5024,1610,4095,149,935
1784847500.5041,1639,4095,147,935
1784847500.5062,1639,4095,146,1000
1784847500.5083,1666,4095,145,1000
1784847500.5105,1694,4095,144,1000
1784847500.5126,2039,4095,146,1000
1784847500.5147,1328,4095,148,1000
1784847500.5169,1490,4095,148,1000
1784847500.5191,1534,4095,148,1000
1784847500.5214,1563,4095,147,1000
1784847500.5237,1557,4095,147,1000
1784847500.5252,1578,4095,146,1000
1784847500.5268,1624,4095,145,1000
1784847500.5283,1602,4095,144,1000
1784847500.5299,1423,4095,145,1000
1784847500.5320,1456,4095,145,1000
1784847500.5341,1507,4095,145,1000
1784847500.5362,1559,4095,145,1000
1784847500.5383,1585,4095,144,1000
1784847500.5403,1604,4095,143,1000
1784847500.5424,1636,4095,142,1000
1784847500.5446,1676,4095,141,1000
1784847500.5469,1685,4095,140,1000
1784847500.5491,1755,4095,139,1000
1784847500.5574,1474,4095,140,1000
1784847500.5657,1523,4095,140,1000
1784847500.5740,1550,4095,139,1000
1784847500.5742,1574,4095,139,1000
1784847500.5743,1612,4095,138,1000
1784847500.5745,1653,4095,136,1000
1784847500.5747,1670,4095,135,1000
1784847500.5748,1676,4095,134,1000
1784847500.5750,1696,4095,133,955
1784847500.5752,1723,4095,132,955
1784847500.5753,1476,4095,133,955
1784847500.5755,1506,4095,133,955
1784847500.5757,1533,4095,133,955
1784847500.5772,1593,4095,132,955
1784847500.5787,1617,4095,131,955
1784847500.5803,1642,4095,130,955
1784847500.5818,1644,4095,129,955
1784847500.5840,1682,4095,128,955
1784847500.5862,1708,4095,127,890
1784847500.5884,1969,4095,129,890
1784847500.5906,1484,4095,129,890
1784847500.5928,1522,4095,129,890
1784847500.5950,1578,4095,129,890
1784847500.5967,1605,4095,128,890
1784847500.5985,1606,4095,127,890
1784847500.6002,1618,4095,127,890
1784847500.6019,1622,4095,126,890
1784847500.6041,1642,4095,124,890
1784847500.6063,1649,4095,123,847
1784847500.6085,1637,4095,122,847
1784847500.6107,1480,4095,123,847
1784847500.6128,1515,4095,123,847
1784847500.6150,1535,4095,123,847
1784847500.6212,1577,4095,122,847
1784847500.6215,1616,4095,122,847
1784847500.6217,1649,4095,120,847
1784847500.6220,1661,4095,119,847
1784847500.6243,1680,4095,118,847
1784847500.6265,1712,4095,118,786
1784847500.6288,1662,4095,117,786
1784847500.6306,1504,4095,117,786
1784847500.6324,1526,4095,117,786
1784847500.6341,1575,4095,117,786
1784847500.6359,1609,4095,116,786
1784847500.6382,1627,4095,115,786
1784847500.6406,1645,4095,114,786
1784847500.6429,1675,4095,113,786
1784847500.6449,1698,4095,112,786
1784847500.6469,1714,4095,112,722
1784847500.6489,1683,4095,111,722
1784847500.6507,1492,4095,112,722
1784847500.6526,1535,4095,112,722
1784847500.6544,1571,4095,111,722
1784847500.6562,1590,4095,111,722
1784847500.6585,1619,4095,110,722
1784847500.6607,1646,4095,109,722
1784847500.6629,1675,4095,108,722
1784847500.6650,1678,4095,107,722
1784847500.6671,1692,4095,107,664
1784847500.6692,1663,4095,106,664
1784847500.6713,1518,4095,106,664
1784847500.6735,1528,4095,106,664
1784847500.6756,1557,4095,106,664
1784847500.6777,1599,4095,106,664
1784847500.6798,1634,4095,105,664
1784847500.6819,1642,4095,104,664
1784847500.6841,1651,4095,103,664
1784847500.6862,1694,4095,102,664
1784847500.6883,1709,4095,102,610
1784847500.6904,3249,4095,117,610
1784847500.6926,1481,4095,117,610
1784847500.6938,1542,4095,117,610
1784847500.6950,1581,4095,117,610
1784847500.6963,1599,4095,116,610
1784847500.6985,1617,4095,115,610
1784847500.7007,1647,4095,114,610
1784847500.7029,1662,4095,113,610
1784847500.7047,1688,4095,112,610
1784847500.7064,1694,4095,112,719
1784847500.7081,1618,4095,111,719
1784847500.7098,1522,4095,111,719
1784847500.7120,1555,4095,111,719
1784847500.7141,1562,4095,111,719
1784847500.7163,1594,4095,110,719
1784847500.7185,1636,4095,109,719
1784847500.7207,1661,4095,108,719
1784847500.7229,1676,4095,108,719
1784847500.7246,1670,4095,107,719
1784847500.7264,1719,4095,106,658
1784847500.7281,1945,4095,108,658
1784847500.7298,1506,4095,108,658
1784847500.7320,1520,4095,109,658
1784847500.7342,1554,4095,109,658
1784847500.7364,1625,4095,108,658
1784847500.7386,1648,4095,107,658
1784847500.7408,1660,4095,106,658
1784847500.7430,1677,4095,105,658
1784847500.7492,1717,4095,104,658
1784847500.7495,1713,4095,104,635
1784847500.7498,1659,4095,103,635
1784847500.7501,1510,4095,103,635
1784847500.7523,1535,4095,104,635
1784847500.7545,1571,4095,103,635
1784847500.7567,1585,4095,103,635
1784847500.7585,1617,4095,102,635
1784847500.7602,1655,4095,101,635
1784847500.7620,1671,4095,100,635
1784847500.7637,1675,4095,100,635
1784847500.7660,1695,4095,99,581
1784847500.7683,1671,4095,98,581
1784847500.7706,1514,4095,99,581
1784847500.7724,1535,4095,99,581
1784847500.7742,1570,4095,99,581
1784847500.7759,1614,4095,98,581
1784847500.7777,1640,4095,97,581
1784847500.7805,1638,4095,97,581
1784847500.7833,1662,4095,96,581
1784847500.7860,1674,4095,95,581
1784847500.7916,1710,4095,94,530
1784847500.7971,1666,4095,94,530
1784847500.8026,1512,4095,94,530
1784847500.8082,1535,4095,94,530
1784847500.8085,1599,4095,94,530
1784847500.8089,1615,4095,93,530
1784847500.8092,1617,4095,93,530
1784847500.8096,1636,4095,92,530
1784847500.8099,1677,4095,91,530
1784847500.8103,1685,4095,91,530
1784847500.8106,1684,4095,90,483
1784847500.8139,1655,4095,89,483
1784847500.8171,1532,4095,90,483
1784847500.8204,1548,4095,90,483
1784847500.8206,1571,4095,90,483
1784847500.8207,1599,4095,89,483
1784847500.8209,1633,4095,89,483
1784847500.8211,1672,4095,88,483
1784847500.8227,1664,4095,87,483
1784847500.8244,1688,4095,87,483
1784847500.8260,1708,4095,86,440
1784847500.8276,1656,4095,85,440
1784847500.8299,1523,4095,86,440
1784847500.8321,1551,4095,86,440
1784847500.8344,1580,4095,86,440
1784847500.8362,1614,4095,86,440
1784847500.8380,1632,4095,85,440
1784847500.8398,1649,4095,84,440
1784847500.8416,1681,4095,84,440
1784847500.8440,1693,4095,83,440
1784847500.8463,1709,4095,83,401
1784847500.8486,1883,4095,84,401
1784847500.8504,1514,4095,85,401
1784847500.8522,1562,4095,85,401
1784847500.8539,1588,4095,85,401
1784847500.8557,1599,4095,84,401
1784847500.8580,1618,4095,84,401
1784847500.8602,1670,4095,83,401
1784847500.8625,1689,4095,83,401
1784847500.8644,1662,4095,82,401
1784847500.8662,1699,4095,82,388
1784847500.8681,1686,4095,81,388
1784847500.8700,1527,4095,81,388
1784847500.8723,1535,4095,82,388
1784847500.8745,1568,4095,82,388
1784847500.8768,1626,4095,81,388
1784847500.8846,1647,4095,81,388
1784847500.8851,1647,4095,80,388
1784847500.8856,1653,4095,79,388
1784847500.8861,1689,4095,79,388
1784847500.8877,1713,4095,78,354
1784847500.8893,4093,4095,102,354
1784847500.8909,1409,4095,104,354
1784847500.8927,1535,4095,104,354
1784847500.8944,1582,4095,103,354
1784847500.8962,1597,4095,103,354
1784847500.8980,1590,4095,103,354
1784847500.9002,1631,4095,102,354
1784847500.9023,1679,4095,101,354
1784847500.9045,1672,4095,100,354
1784847500.9064,1681,4095,99,584
1784847500.9082,2731,4095,109,584
1784847500.9100,1394,4095,111,584
1784847500.9118,1538,4095,111,584
1784847500.9195,1552,4095,111,584
1784847500.9271,1574,4095,110,584
1784847500.9347,1622,4095,110,584
1784847500.9359,1656,4095,108,584
1784847500.9372,1646,4095,107,584
1784847500.9385,1668,4095,107,584
1784847500.9398,1681,4095,106,654
1784847500.9410,1672,4095,105,654
1784847500.9423,1500,4095,105,654
1784847500.9436,1539,4095,105,654
1784847500.9441,1579,4095,105,654
1784847500.9447,1613,4095,105,654
1784847500.9452,1600,4095,104,654
1784847500.9458,1630,4095,103,654
1784847500.9463,1670,4095,102,654
1784847500.9469,1705,4095,102,654
1784847500.9481,1706,4095,101,605
1784847500.9494,1639,4095,100,605
1784847500.9507,1518,4095,101,605
1784847500.9520,1565,4095,101,605
1784847500.9542,1590,4095,100,605
1784847500.9565,1597,4095,100,605
1784847500.9587,1630,4095,99,605
1784847500.9605,1669,4095,98,605
1784847500.9623,1678,4095,98,605
1784847500.9641,1674,4095,97,605
1784847500.9659,1691,4095,96,548
1784847500.9682,1808,4095,97,548
1784847500.9706,1520,4095,97,548
1784847500.9730,1534,4095,97,548
1784847500.9748,1581,4095,97,548
1784847500.9766,1616,4095,97,548
1784847500.9785,1635,4095,96,548
1784847500.9803,1646,4095,95,548
1784847500.9830,1671,4095,94,548
1784847500.9857,1685,4095,93,548
1784847500.9883,1710,4095,93,514
1784847500.9935,1684,4095,92,514
1784847500.9938,1503,4095,93,514
1784847500.9940,1546,4095,93,514
1784847500.9943,1604,4095,93,514
1784847500.9962,1603,4095,92,514
1784847500.9980,1638,4095,92,514
1784847500.9999,1646,4095,91,514
1784847501.0017,1666,4095,90,514
1784847501.0040,1695,4095,89,514
1784847501.0062,1687,4095,89,468
1784847501.0085,1672,4095,88,468
1784847501.0103,1528,4095,88,468
1784847501.0122,1556,4095,89,468
1784847501.0140,1579,4095,88,468
1784847501.0159,1602,4095,88,468
1784847501.0182,1641,4095,87,468
1784847501.0205,1656,4095,87,468
1784847501.0229,1661,4095,86,468
1784847501.0247,1675,4095,85,468
1784847501.0265,1711,4095,85,423
1784847501.0283,1705,4095,84,423
1784847501.0301,1521,4095,85,423
1784847501.0325,1539,4095,85,423
1784847501.0349,1587,4095,85,423
1784847501.0374,1615,4095,85,423
1784847501.0392,1632,4095,84,423
1784847501.0409,1646,4095,83,423
1784847501.0427,1666,4095,82,423
1784847501.0445,1690,4095,82,423
1784847501.0467,1688,4095,81,387
1784847501.0489,1773,4095,82,387
1784847501.0511,1514,4095,82,387
1784847501.0577,1585,4095,82,387
1784847501.0580,1597,4095,82,387
1784847501.0584,1598,4095,82,387
1784847501.0588,1627,4095,81,387
1784847501.0609,1659,4095,80,387
1784847501.0630,1685,4095,80,387
1784847501.0651,1684,4095,79,387
1784847501.0673,1688,4095,79,360
1784847501.0694,1682,4095,78,360
1784847501.0715,1548,4095,79,360
1784847501.0737,1559,4095,79,360
1784847501.0758,1565,4095,79,360
1784847501.0779,1605,4095,79,360
1784847501.0801,1622,4095,78,360
1784847501.0822,1648,4095,78,360
1784847501.0837,1670,4095,77,360
1784847501.0853,1684,4095,76,360
1784847501.0869,1696,4095,76,328
1784847501.0887,1715,4095,76,328
1784847501.0905,1506,4095,77,328
1784847501.0923,1547,4095,77,328
1784847501.0941,1593,4095,77,328
1784847501.0965,1610,4095,76,328
1784847501.0988,1621,4095,76,328
1784847501.1011,1659,4095,75,328
1784847501.1029,1694,4095,75,328
1784847501.1047,1688,4095,75,328
1784847501.1065,1696,4095,74,307
1784847501.1083,1644,4095,74,307
1784847501.1106,1521,4095,74,307
1784847501.1128,1574,4095,74,307
1784847501.1150,1592,4095,74,307
1784847501.1215,1592,4095,74,307
1784847501.1218,1630,4095,74,307
1784847501.1221,1673,4095,73,307
1784847501.1223,1674,4095,72,307
1784847501.1242,1672,4095,72,307
1784847501.1260,1702,4095,72,278
1784847501.1279,1669,4095,71,278
1784847501.1298,1514,4095,72,278
1784847501.1321,1535,4095,72,278
1784847501.1344,1576,4095,72,278
1784847501.1367,1616,4095,72,278
1784847501.1385,1622,4095,72,278
1784847501.1404,1632,4095,71,278
1784847501.1422,1667,4095,70,278
1784847501.1440,1696,4095,70,278
1784847501.1464,1700,4095,70,259
1784847501.1487,1672,4095,69,259
1784847501.1510,1508,4095,70,259
1784847501.1528,1540,4095,71,259
1784847501.1545,1579,4095,71,259
1784847501.1563,1598,4095,70,259
1784847501.1580,1616,4095,70,259
1784847501.1604,1661,4095,69,259
1784847501.1628,1678,4095,69,259
1784847501.1651,1669,4095,68,259
1784847501.1726,1693,4095,68,250
1784847501.1801,1659,4095,67,250
1784847501.1875,1535,4095,68,250
1784847501.1950,1549,4095,68,250
1784847501.1951,1572,4095,69,250
1784847501.1953,1612,4095,68,250
1784847501.1954,1636,4095,68,250
1784847501.1956,1649,4095,67,250
1784847501.1957,1668,4095,67,250
1784847501.1959,1693,4095,66,250
1784847501.1960,1691,4095,66,250
1784847501.1961,1655,4095,65,250
1784847501.1963,1513,4095,66,250
1784847501.1964,1559,4095,66,250
1784847501.1966,1592,4095,66,250
1784847501.1979,1613,4095,66,250
1784847501.1992,1629,4095,66,250
1784847501.2006,1649,4095,65,250
1784847501.2024,1674,4095,65,250
1784847501.2042,1695,4095,64,250
1784847501.2060,1700,4095,64,250
1784847501.2079,1660,4095,64,250
1784847501.2102,1531,4095,64,250
1784847501.2126,1558,4095,65,250
1784847501.2149,1578,4095,65,250
1784847501.2167,1596,4095,65,250
1784847501.2185,1646,4095,64,250
1784847501.2203,1653,4095,63,250
1784847501.2221,1666,4095,63,250
1784847501.2243,1674,4095,62,250
1784847501.2266,1692,4095,62,250
1784847501.2289,1667,4095,62,250
1784847501.2307,1532,4095,62,250
1784847501.2326,1534,4095,63,250
1784847501.2344,1579,4095,63,250
1784847501.2363,1622,4095,63,250
1784847501.2386,1633,4095,62,250
1784847501.2409,1637,4095,62,250
1784847501.2432,1672,4095,61,250
1784847501.2496,1687,4095,61,250
1784847501.2499,1702,4095,61,250
1784847501.2502,1624,4095,61,250
1784847501.2506,1523,4095,61,250
1784847501.2524,1567,4095,62,250
1784847501.2543,1585,4095,62,250
1784847501.2561,1597,4095,62,250
1784847501.2580,1620,4095,61,250
1784847501.2602,1670,4095,61,250
1784847501.2624,1681,4095,61,250
1784847501.2646,1677,4095,60,250
1784847501.2664,1691,4095,60,250
1784847501.2682,1664,4095,59,250
1784847501.2700,1530,4095,60,250
1784847501.2718,1544,4095,61,250
1784847501.2741,1571,4095,61,250
1784847501.2764,1625,4095,60,250
1784847501.2787,1644,4095,60,250
1784847501.2809,1640,4095,60,250
1784847501.2831,1656,4095,59,250
1784847501.2853,1692,4095,59,250
1784847501.2875,1727,4095,59,250
1784847501.2897,1737,4095,59,250
1784847501.2919,1517,4095,60,250
1784847501.2941,1539,4095,60,250
1784847501.2963,1590,4095,60,250
1784847501.2985,1602,4095,60,250
1784847501.3007,1606,4095,60,250
1784847501.3029,1643,4095,60,250
1784847501.3046,1681,4095,59,250
1784847501.3063,1700,4095,59,250
1784847501.3077,1702,4095,59,250
1784847501.3090,1724,4095,59,250
1784847501.3104,1510,4095,60,250
1784847501.3117,1545,4095,61,250
1784847501.3140,1567,4095,61,250
1784847501.3163,1584,4095,61,250
1784847501.3185,1630,4095,61,250
1784847501.3204,1656,4095,60,250
1784847501.3223,1664,4095,59,250
1784847501.3241,1685,4095,59,250
1784847501.3260,1703,4095,59,0
1784847501.3280,1689,4095,59,0
1784847501.3300,1517,4095,60,0
1784847501.3320,1530,4095,60,0
1784847501.3340,1580,4095,60,0
1784847501.3360,1621,4095,60,0
1784847501.3380,1633,4095,60,0
1784847501.3400,1640,4095,59,0
1784847501.3421,1681,4095,59,0
1784847501.3440,1697,4095,59,0
1784847501.3460,1708,4095,59,0
1784847501.3480,1674,4095,58,0
1784847501.3500,1511,4095,59,0
1784847501.3520,1569,4095,59,0
1784847501.3540,1593,4095,59,0
1784847501.3560,1592,4095,59,0
1784847501.3580,1617,4095,59,0
1784847501.3601,1660,4095,59,0
1784847501.3622,1679,4095,58,0
1784847501.3642,1680,4095,58,0
1784847501.3663,1690,4095,58,0
1784847501.3682,1668,4095,57,0
1784847501.3702,1531,4095,58,0
1784847501.3721,1548,4095,58,0
1784847501.3740,1565,4095,59,0
1784847501.3760,1605,4095,59,0
1784847501.3780,1641,4095,58,0
1784847501.3800,1653,4095,58,0
1784847501.3820,1651,4095,57,0
1784847501.3840,1687,4095,57,0
1784847501.3860,1712,4095,57,0
1784847501.3880,1671,4095,56,0
1784847501.3900,1505,4095,57,0
1784847501.3938,1555,4095,58,0
1784847501.3976,1588,4095,58,0
1784847501.4014,1610,4095,58,0
1784847501.4052,1609,4095,58,0
1784847501.4054,1645,4095,57,0
1784847501.4055,1683,4095,57,0
1784847501.4057,1681,4095,57,0
1784847501.4059,1682,4095,56,0
1784847501.4078,1670,4095,56,0
1784847501.4098,1521,4095,57,0
1784847501.4118,1567,4095,57,0
1784847501.4138,1575,4095,57,0
1784847501.4158,1594,4095,57,0
1784847501.4178,1629,4095,57,0
1784847501.4198,1649,4095,56,0
1784847501.4219,1654,4095,56,0
1784847501.4239,1684,4095,55,0
1784847501.4259,1714,4095,56,0
1784847501.4279,1660,4095,55,0
1784847501.4299,1526,4095,56,0
1784847501.4319,1534,4095,56,0
1784847501.4339,1568,4095,57,0
1784847501.4359,1615,4095,56,0
1784847501.4379,1614,4095,56,0
1784847501.4399,1638,4095,56,0
1784847501.4418,1660,4095,55,0
1784847501.4437,1692,4095,55,0
1784847501.4457,1702,4095,55,0
1784847501.4477,1714,4095,55,0
1784847501.4497,1513,4095,56,0
1784847501.4517,1535,4095,57,0
1784847501.4537,1578,4095,57,0
1784847501.4557,1589,4095,57,0
1784847501.4577,1603,4095,57,0
1784847501.4597,1647,4095,56,0
1784847501.4617,1671,4095,56,0
1784847501.4638,1679,4095,56,0
1784847501.4658,1680,4095,55,0
1784847501.4679,1708,4095,55,0
1784847501.4699,1502,4095,56,0
1784847501.4719,1530,4095,57,0
1784847501.4739,1560,4095,57,0
1784847501.4759,1600,4095,57,0
1784847501.4779,1635,4095,57,0
1784847501.4799,1639,4095,57,0
1784847501.4820,1645,4095,56,0
1784847501.4840,1681,4095,56,0
1784847501.4860,1704,4095,56,0
1784847501.4880,1683,4095,55,0
1784847501.4901,1488,4095,56,0
1784847501.4922,1524,4095,57,0
1784847501.4942,1562,4095,58,0
1784847501.4963,1589,4095,58,0
1784847501.4984,1600,4095,58,0
1784847501.5005,1636,4095,57,0
1784847501.5025,1667,4095,57,0
1784847501.5045,1694,4095,57,0
1784847501.5065,1697,4095,56,0
1784847501.5085,1693,4095,56,0
1784847501.5105,1499,4095,57,0
1784847501.5123,1527,4095,58,0
1784847501.5142,1562,4095,58,0
1784847501.5161,1573,4095,59,0
1784847501.5179,1635,4095,58,0
1784847501.5199,1646,4095,58,0
1784847501.5220,1662,4095,57,0
1784847501.5240,1669,4095,57,0
1784847501.5260,1693,4095,56,0
1784847501.5280,1674,4095,56,0
1784847501.5299,1486,4095,57,0
1784847501.5318,1505,4095,58,0
1784847501.5338,1545,4095,59,0
1784847501.5358,1596,4095,59,0
1784847501.5378,1602,4095,59,0
1784847501.5398,1638,4095,58,0
1784847501.5418,1669,4095,58,0
1784847501.5437,1697,4095,58,0
1784847501.5457,1697,4095,57,0
1784847501.5477,1633,4095,57,0
1784847501.5497,1490,4095,58,0
1784847501.5517,1522,4095,59,0
1784847501.5537,1576,4095,59,0
1784847501.5557,1579,4095,59,0
1784847501.5577,1615,4095,59,0
1784847501.5597,1647,4095,58,0
1784847501.5617,1675,4095,58,0
1784847501.5637,1675,4095,58,0
1784847501.5657,1686,4095,57,0
1784847501.5677,1702,4095,57,0
1784847501.5697,1510,4095,58,0
1784847501.5717,1507,4095,59,0
1784847501.5737,1540,4095,60,0
1784847501.5787,1581,4095,60,0
1784847501.5836,1621,4095,59,0
1784847501.5886,1637,4095,59,0
1784847501.5935,1646,4095,59,0
1784847501.5940,1671,4095,58,0
1784847501.5944,1703,4095,58,0
1784847501.5949,1673,4095,58,0
1784847501.5953,1473,4095,59,0
1784847501.5959,1502,4095,60,0
1784847501.5965,1544,4095,60,0
1784847501.5971,1594,4095,60,0
1784847501.5976,1579,4095,60,0
1784847501.5996,1637,4095,60,0
1784847501.6017,1667,4095,59,0
1784847501.6037,1690,4095,59,0
1784847501.6057,1680,4095,59,0
1784847501.6078,1613,4095,59,0
1784847501.6099,1494,4095,60,0
1784847501.6121,1516,4095,61,0
1784847501.6142,1535,4095,61,0
1784847501.6160,1581,4095,61,0
1784847501.6179,1638,4095,61,0
1784847501.6198,1645,4095,60,0
1784847501.6217,1649,4095,60,0
1784847501.6237,1664,4095,59,0
1784847501.6257,1708,4095,59,0
1784847501.6277,1712,4095,59,0
1784847501.6297,4095,4095,83,0
1784847501.6317,1381,4095,85,0
1784847501.6337,1502,4095,85,0
1784847501.6357,1539,4095,86,0
1784847501.6377,1571,4095,86,0
1784847501.6397,1592,4095,86,0
1784847501.6417,1619,4095,85,0
1784847501.6437,1653,4095,84,0
1784847501.6457,1663,4095,83,0
1784847501.6477,1782,4095,84,0
1784847501.6496,1451,4095,85,0
1784847501.6516,1488,4095,86,0
1784847501.6536,1532,4095,86,0
1784847501.6556,1567,4095,86,0
1784847501.6576,1597,4095,86,0
1784847501.6596,1629,4095,85,0
1784847501.6617,1651,4095,84,0
1784847501.6666,1660,4095,84,0
1784847501.6715,1679,4095,83,0
1784847501.6764,1671,4095,82,0
1784847501.6813,1482,4095,83,0
1784847501.6817,1489,4095,84,0
1784847501.6822,1522,4095,85,0
1784847501.6826,1584,4095,84,0
1784847501.6831,1607,4095,84,0
1784847501.6837,1617,4095,84,0
1784847501.6844,1645,4095,83,0
1784847501.6850,1672,4095,82,0
1784847501.6857,1712,4095,82,0
1784847501.6877,1606,4095,82,0
1784847501.6897,1465,4095,83,0
1784847501.6917,1515,4095,83,0
1784847501.6937,1570,4095,83,0
1784847501.6957,1584,4095,83,0
1784847501.6977,1598,4095,83,0
1784847501.6997,1631,4095,82,0
1784847501.7017,1671,4095,82,0
1784847501.7047,1681,4095,81,0
1784847501.7077,1680,4095,80,0
1784847501.7094,1702,4095,80,0
1784847501.7111,1683,4095,80,0
1784847501.7128,1492,4095,80,0
1784847501.7145,1510,4095,81,0
1784847501.7165,1535,4095,81,0
1784847501.7185,1585,4095,81,0
1784847501.7204,1622,4095,81,0
1784847501.7224,1622,4095,80,0
1784847501.7249,1653,4095,79,0
1784847501.7274,1685,4095,79,360
1784847501.7299,1669,4095,78,360
1784847501.7324,1458,4095,80,360
1784847501.7339,1489,4095,80,360
1784847501.7353,1523,4095,81,360
1784847501.7368,1575,4095,81,360
1784847501.7386,1604,4095,81,360
1784847501.7404,1614,4095,80,360
1784847501.7421,1637,4095,79,360
1784847501.7439,1671,4095,79,360
1784847501.7461,1706,4095,79,355
1784847501.7484,3598,4095,97,355
1784847501.7506,1434,4095,98,355
1784847501.7621,1503,4095,99,355
1784847501.7631,1533,4095,99,355
1784847501.7642,1551,4095,99,355
1784847501.7652,1598,4095,99,355
1784847501.7653,1634,4095,98,355
1784847501.7654,1652,4095,97,355
1784847501.7656,1660,4095,96,355
1784847501.7657,1674,4095,95,540
1784847501.7679,1655,4095,94,540
1784847501.7700,1471,4095,95,540
1784847501.7722,1478,4095,96,540
1784847501.7740,1526,4095,96,540
1784847501.7758,1585,4095,96,540
1784847501.7776,1626,4095,95,540
1784847501.7794,1623,4095,95,540
1784847501.7818,1641,4095,94,540
1784847501.7841,1668,4095,93,540
1784847501.7864,1695,4095,93,510
1784847501.7882,1693,4095,92,510
1784847501.7900,1456,4095,93,510
1784847501.7918,1507,4095,94,510
1784847501.7936,1535,4095,94,510
1784847501.7959,1582,4095,94,510
1784847501.7981,1584,4095,93,510
1784847501.8004,1614,4095,93,510
1784847501.8023,1660,4095,92,510
1784847501.8042,1670,4095,91,510
1784847501.8061,1682,4095,91,488
1784847501.8079,1642,4095,90,488
1784847501.8107,1469,4095,91,488
1784847501.8134,1492,4095,91,488
1784847501.8162,1520,4095,92,488
1784847501.8216,1559,4095,92,488
1784847501.8219,1613,4095,91,488
1784847501.8221,1633,4095,91,488
1784847501.8224,1650,4095,90,488
1784847501.8243,1667,4095,89,488
1784847501.8262,1711,4095,89,467
1784847501.8281,2481,4095,96,467
1784847501.8300,1449,4095,97,467
1784847501.8335,1490,4095,98,467
1784847501.8370,1532,4095,98,467
1784847501.8405,1581,4095,98,467
1784847501.8412,1600,4095,97,467
1784847501.8420,1617,4095,97,467
1784847501.8427,1641,4095,96,467
1784847501.8434,1689,4095,95,467
1784847501.8458,1683,4095,95,532
1784847501.8481,1644,4095,94,532
1784847501.8504,1451,4095,95,532
1784847501.8522,1514,4095,95,532
1784847501.8540,1539,4095,95,532
1784847501.8558,1564,4095,95,532
1784847501.8576,1588,4095,95,532
1784847501.8599,1629,4095,94,532
1784847501.8622,1658,4095,94,532
1784847501.8645,1644,4095,93,532
1784847501.8664,1679,4095,92,503
1784847501.8682,1747,4095,92,503
1784847501.8700,1480,4095,93,503
1784847501.8718,1488,4095,94,503
1784847501.8741,1517,4095,94,503
1784847501.8763,1578,4095,94,503
1784847501.8786,1608,4095,93,503
1784847501.8854,1621,4095,93,503
1784847501.8856,1645,4095,92,503
1784847501.8858,1668,4095,91,503
1784847501.8860,1705,4095,91,488
1784847501.8879,1607,4095,90,488
1784847501.8897,1443,4095,91,488
1784847501.8916,1488,4095,92,488
1784847501.8934,1540,4095,92,488
1784847501.8985,1577,4095,92,488
1784847501.9036,1587,4095,92,488
1784847501.9087,1624,4095,91,488
1784847501.9090,1656,4095,90,488
1784847501.9094,1682,4095,90,488
1784847501.9097,1671,4095,89,470
1784847501.9101,1622,4095,88,470
1784847501.9115,1485,4095,89,470
1784847501.9129,1502,4095,90,470
1784847501.9143,1520,4095,90,470
1784847501.9162,1564,4095,90,470
1784847501.9182,1615,4095,90,470
1784847501.9201,1621,4095,89,470
1784847501.9220,1643,4095,88,470
1784847501.9242,1664,4095,88,470
1784847501.9263,1689,4095,87,449
1784847501.9284,1714,4095,87,449
1784847501.9303,1867,4095,88,449
1784847501.9322,1323,4095,90,449
1784847501.9341,1483,4095,91,449
1784847501.9359,1526,4095,92,449
1784847501.9382,1542,4095,92,449
1784847501.9405,1560,4095,92,449
1784847501.9427,1605,4095,91,449
1784847501.9494,1642,4095,91,449
1784847501.9496,1663,4095,90,478
1784847501.9498,1615,4095,89,478
1784847501.9500,1415,4095,91,478
1784847501.9519,1469,4095,92,478
1784847501.9538,1518,4095,92,478
1784847501.9557,1535,4095,92,478
1784847501.9576,1571,4095,92,478
1784847501.9598,1610,4095,92,478
1784847501.9619,1641,4095,91,478
1784847501.9641,1654,4095,90,478
1784847501.9659,1677,4095,89,474
1784847501.9677,1646,4095,89,474
1784847501.9695,1453,4095,90,474
1784847501.9713,1481,4095,90,474
1784847501.9744,1502,4095,91,474
1784847501.9776,1541,4095,91,474
1784847501.9807,1596,4095,91,474
1784847501.9822,1638,4095,90,474
1784847501.9837,1634,4095,89,474
1784847501.9852,1668,4095,89,474
1784847501.9867,1697,4095,88,461
1784847501.9886,1648,4095,87,461
1784847501.9904,1433,4095,89,461
1784847501.9923,1484,4095,89,461
1784847501.9942,1523,4095,90,461
1784847501.9961,1565,4095,90,461
1784847501.9980,1587,4095,90,461
1784847501.9999,1617,4095,89,461
1784847502.0021,1645,4095,88,461
1784847502.0043,1672,4095,88,461
1784847502.0065,1669,4095,87,446
1784847502.0134,1739,4095,87,446
1784847502.0136,1461,4095,88,446
1784847502.0137,1491,4095,89,446
1784847502.0139,1504,4095,89,446
1784847502.0157,1539,4095,89,446
1784847502.0175,1596,4095,89,446
1784847502.0194,1618,4095,89,446
1784847502.0212,1648,4095,88,446
1784847502.0235,1658,4095,87,446
1784847502.0257,1692,4095,86,441
1784847502.0280,1863,4095,88,441
1784847502.0299,1423,4095,89,441
1784847502.0317,1463,4095,90,441
1784847502.0335,1525,4095,90,441
1784847502.0353,1573,4095,90,441
1784847502.0444,1590,4095,90,441
1784847502.0534,1603,4095,90,441
1784847502.0625,1635,4095,89,441
1784847502.0626,1667,4095,88,441
1784847502.0628,1677,4095,87,453
1784847502.0629,1614,4095,87,453
1784847502.0631,1430,4095,88,453
1784847502.0632,1495,4095,89,453
1784847502.0634,1519,4095,89,453
1784847502.0635,1528,4095,90,453
1784847502.0638,1580,4095,90,453
1784847502.0640,1621,4095,89,453
1784847502.0642,1663,4095,88,453
1784847502.0645,1656,4095,87,453
1784847502.0667,1681,4095,87,446
1784847502.0689,1638,4095,86,446
1784847502.0712,1451,4095,87,446
1784847502.0777,1469,4095,88,446
1784847502.0781,1506,4095,89,446
1784847502.0784,1560,4095,89,446
1784847502.0787,1598,4095,88,446
1784847502.0806,1611,4095,88,446
1784847502.0825,1627,4095,87,446
1784847502.0844,1663,4095,87,446
1784847502.0862,1705,4095,86,439
1784847502.0885,1723,4095,86,439
1784847502.0907,1426,4095,87,439
1784847502.0929,1473,4095,88,439
1784847502.0947,1509,4095,89,439
1784847502.0966,1549,4095,89,439
1784847502.0984,1603,4095,89,439
1784847502.1002,1611,4095,88,439
1784847502.1024,1661,4095,87,439
1784847502.1046,1674,4095,87,439
1784847502.1068,1681,4095,86,438
1784847502.1086,2094,4095,90,438
1784847502.1104,1444,4095,91,438
1784847502.1122,1469,4095,92,438
1784847502.1140,1488,4095,92,438
1784847502.1163,1532,4095,93,438
1784847502.1186,1603,4095,92,438
1784847502.1209,1625,4095,92,438
1784847502.1229,1634,4095,91,438
1784847502.1250,1659,4095,90,438
1784847502.1270,1686,4095,90,475
1784847502.1291,1617,4095,89,475
1784847502.1312,1432,4095,90,475
1784847502.1333,1462,4095,91,475
1784847502.1355,1510,4095,92,475
1784847502.1415,1558,4095,92,475
1784847502.1419,1584,4095,92,475
1784847502.1422,1596,4095,91,475
1784847502.1425,1639,4095,90,475
1784847502.1451,1675,4095,90,475
1784847502.1477,1684,4095,89,471
1784847502.1504,1627,4095,88,471
1784847502.1530,1433,4095,90,471
1784847502.1553,1486,4095,91,471
1784847502.1576,1511,4095,91,471
1784847502.1599,1535,4095,91,471
1784847502.1622,1579,4095,91,471
1784847502.1645,1616,4095,91,471
1784847502.1668,1650,4095,90,471
1784847502.1691,1665,4095,89,471
1784847502.1697,1662,4095,88,460
1784847502.1703,1615,4095,88,460
1784847502.1709,1452,4095,89,460
1784847502.1727,1471,4095,90,460
1784847502.1745,1503,4095,90,460
1784847502.1763,1553,4095,90,460
1784847502.1780,1598,4095,90,460
1784847502.1804,1616,4095,89,460
1784847502.1829,1636,4095,89,460
1784847502.1853,1669,4095,88,460
1784847502.1870,1708,4095,88,454
1784847502.1888,1644,4095,87,454
1784847502.1906,1423,4095,88,454
1784847502.1923,1481,4095,89,454
1784847502.1945,1516,4095,89,454
1784847502.1968,1556,4095,89,454
1784847502.1990,1585,4095,89,454
1784847502.2055,1609,4095,89,454
1784847502.2058,1652,4095,88,454
1784847502.2061,1682,4095,87,454
1784847502.2064,1678,4095,87,445
1784847502.2082,1640,4095,86,445
1784847502.2100,1435,4095,87,445
1784847502.2119,1484,4095,88,445
1784847502.2137,1502,4095,89,445
1784847502.2160,1539,4095,89,445
1784847502.2183,1587,4095,89,445
1784847502.2206,1628,4095,88,445
1784847502.2224,1640,4095,87,445
1784847502.2242,1648,4095,86,445
1784847502.2260,1690,4095,86,435
1784847502.2278,1613,4095,85,435
1784847502.2301,1438,4095,87,435
1784847502.2324,1463,4095,88,435
1784847502.2348,1516,4095,88,435
1784847502.2366,1568,4095,88,435
1784847502.2385,1589,4095,88,435
1784847502.2404,1600,4095,87,435
1784847502.2423,1646,4095,87,435
1784847502.2449,1659,4095,86,435
1784847502.2475,1680,4095,85,429
1784847502.2500,1688,4095,85,429
1784847502.2515,1451,4095,86,429
1784847502.2530,1490,4095,87,429
1784847502.2545,1521,4095,87,429
1784847502.2560,1541,4095,87,429
1784847502.2583,1588,4095,87,429
1784847502.2606,1629,4095,86,429
1784847502.2629,1646,4095,86,429
1784847502.2694,1661,4095,85,429
1784847502.2696,1678,4095,84,418
1784847502.2698,1654,4095,83,418
1784847502.2700,1457,4095,85,418
1784847502.2732,1463,4095,86,418
1784847502.2764,1507,4095,86,418
1784847502.2796,1543,4095,86,418
1784847502.2828,1599,4095,86,418
1784847502.2834,1627,4095,85,418
1784847502.2841,1638,4095,85,418
1784847502.2847,1665,4095,84,418
1784847502.2864,1696,4095,84,410
1784847502.2881,1658,4095,83,410
1784847502.2898,1434,4095,84,410
1784847502.2914,1472,4095,85,410
1784847502.2938,1527,4095,85,410
1784847502.2961,1572,4095,85,410
1784847502.2984,1577,4095,85,410
1784847502.3002,1603,4095,85,410
1784847502.3020,1657,4095,84,410
1784847502.3038,1674,4095,83,410
1784847502.3056,1673,4095,83,402
1784847502.3079,2672,4095,92,402
1784847502.3101,1451,4095,93,402
1784847502.3124,1486,4095,94,402
1784847502.3144,1502,4095,95,402
1784847502.3165,1535,4095,95,402
1784847502.3185,1593,4095,94,402
1784847502.3206,1623,4095,94,402
1784847502.3227,1643,4095,93,402
1784847502.3247,1651,4095,92,402
1784847502.3268,1692,4095,91,496
1784847502.3334,1692,4095,91,496
1784847502.3338,1437,4095,92,496
1784847502.3342,1461,4095,93,496
1784847502.3346,1513,4095,94,496
1784847502.3363,1567,4095,93,496
1784847502.3379,1590,4095,93,496
1784847502.3396,1602,4095,93,496
1784847502.3413,1644,4095,92,496
1784847502.3435,1672,4095,91,496
1784847502.3458,1694,4095,91,487
1784847502.3480,2294,4095,96,487
1784847502.3513,1404,4095,98,487
1784847502.3546,1476,4095,98,487
1784847502.3579,1539,4095,98,487
1784847502.3612,1554,4095,98,487
1784847502.3619,1580,4095,98,487
1784847502.3625,1616,4095,98,487
1784847502.3632,1652,4095,97,487
1784847502.3648,1655,4095,96,487
1784847502.3664,1671,4095,95,535
1784847502.3680,1619,4095,94,535
1784847502.3696,1453,4095,95,535
1784847502.3719,1471,4095,96,535
1784847502.3742,1516,4095,96,535
1784847502.3764,1553,4095,97,535
1784847502.3783,1605,4095,96,535
1784847502.3802,1615,4095,95,535
1784847502.3821,1637,4095,95,535
1784847502.3839,1659,4095,94,535
1784847502.3862,1700,4095,93,517
1784847502.3885,1625,4095,93,517
1784847502.3908,1426,4095,94,517
1784847502.3974,1481,4095,95,517
1784847502.3976,1534,4095,95,517
1784847502.3978,1544,4095,95,517
1784847502.3980,1577,4095,95,517
1784847502.3998,1616,4095,94,517
1784847502.4016,1648,4095,93,517
1784847502.4035,1689,4095,93,517
1784847502.4053,1686,4095,92,504
1784847502.4075,2379,4095,98,504
1784847502.4097,1260,4095,101,504
1784847502.4119,1472,4095,102,504
1784847502.4141,1499,4095,103,504
1784847502.4164,1523,4095,103,504
1784847502.4186,1567,4095,103,504
1784847502.4204,1607,4095,102,504
1784847502.4222,1640,4095,101,504
1784847502.4239,1647,4095,100,504
1784847502.4257,1676,4095,99,584
1784847502.4280,1598,4095,99,584
1784847502.4302,1449,4095,100,584
1784847502.4325,1462,4095,101,584
1784847502.4359,1504,4095,101,584
1784847502.4393,1563,4095,101,584
1784847502.4427,1584,4095,101,584
1784847502.4461,1602,4095,100,584
1784847502.4469,1640,4095,99,584
1784847502.4478,1681,4095,99,584
1784847502.4486,1690,4095,98,569
1784847502.4498,1611,4095,97,569
1784847502.4510,1438,4095,99,569
1784847502.4522,1498,4095,99,569
1784847502.4533,1522,4095,99,569
1784847502.4557,1559,4095,99,569
1784847502.4581,1590,4095,99,569
1784847502.4604,1624,4095,98,569
1784847502.4622,1648,4095,97,569
1784847502.4640,1660,4095,96,569
1784847502.4658,1679,4095,96,543
1784847502.4676,3038,4095,109,543
1784847502.4698,1435,4095,110,543
1784847502.4720,1482,4095,110,543
1784847502.4742,1517,4095,110,543
1784847502.4764,1540,4095,110,543
1784847502.4785,1600,4095,110,543
1784847502.4807,1616,4095,109,543
1784847502.4871,1631,4095,108,543
1784847502.4873,1655,4095,107,543
1784847502.4875,1706,4095,107,663
1784847502.4876,1671,4095,106,663
1784847502.4899,1441,4095,107,663
1784847502.4922,1487,4095,107,663
1784847502.4944,1531,4095,107,663
1784847502.4962,1575,4095,107,663
1784847502.4979,1572,4095,107,663
1784847502.4997,1618,4095,106,663
1784847502.5014,1655,4095,105,663
1784847502.5036,1676,4095,104,663
1784847502.5057,1681,4095,104,629
1784847502.5079,1813,4095,104,629
1784847502.5101,1456,4095,105,629
1784847502.5122,1490,4095,106,629
1784847502.5144,1521,4095,106,629
1784847502.5172,1535,4095,106,629
1784847502.5199,1586,4095,105,629
1784847502.5227,1624,4095,105,629
1784847502.5254,1649,4095,104,629
1784847502.5263,1665,4095,103,629
1784847502.5272,1712,4095,102,616
1784847502.5280,1721,4095,102,616
1784847502.5303,1722,4095,102,616
1784847502.5325,3389,4095,118,616
1784847502.5347,1464,4095,119,616
1784847502.5365,1506,4095,119,616
1784847502.5383,1532,4095,119,616
1784847502.5401,1569,4095,119,616
1784847502.5419,1599,4095,118,616
1784847502.5440,1637,4095,117,616
1784847502.5460,1655,4095,116,764
1784847502.5481,2078,4095,119,764
1784847502.5498,1404,4095,120,764
1784847502.5515,1458,4095,121,764
1784847502.5532,1503,4095,121,764
1784847502.5549,1528,4095,121,764
1784847502.5572,1558,4095,121,764
1784847502.5596,1599,4095,120,764
1784847502.5619,1645,4095,119,764
1784847502.5641,1639,4095,118,764
1784847502.5663,1655,4095,117,775
1784847502.5684,1591,4095,116,775
1784847502.5702,1459,4095,117,775
1784847502.5719,1488,4095,117,775
1784847502.5737,1514,4095,117,775
1784847502.5754,1567,4095,117,775
1784847502.5777,1603,4095,116,775
1784847502.5799,1613,4095,116,775
1784847502.5821,1637,4095,115,775
1784847502.5846,1681,4095,114,775
1784847502.5870,1697,4095,113,735
1784847502.5895,1597,4095,112,735
1784847502.5919,1439,4095,113,735
1784847502.5942,1496,4095,114,735
1784847502.5966,1534,4095,114,735
1784847502.5990,1566,4095,114,735
1784847502.6000,1585,4095,113,735
1784847502.6011,1616,4095,112,735
1784847502.6021,1651,4095,111,735
1784847502.6043,1680,4095,110,735
1784847502.6065,1689,4095,110,697
1784847502.6087,1660,4095,109,697
1784847502.6151,1460,4095,109,697
1784847502.6153,1502,4095,110,697
1784847502.6155,1533,4095,110,697
1784847502.6157,1554,4095,110,697
1784847502.6179,1600,4095,109,697
1784847502.6202,1632,4095,108,697
1784847502.6224,1654,4095,107,697
1784847502.6242,1663,4095,106,697
1784847502.6260,1691,4095,106,652
1784847502.6277,1737,4095,105,652
1784847502.6295,1464,4095,106,652
1784847502.6317,1489,4095,107,652
1784847502.6339,1522,4095,107,652
1784847502.6360,1588,4095,106,652
1784847502.6383,1596,4095,106,652
1784847502.6406,1617,4095,105,652
1784847502.6428,1665,4095,104,652
1784847502.6445,1681,4095,104,652
1784847502.6461,1691,4095,103,623
1784847502.6478,1634,4095,102,623
1784847502.6494,1455,4095,103,623
1784847502.6517,1505,4095,103,623
1784847502.6539,1535,4095,104,623
1784847502.6561,1549,4095,103,623
1784847502.6583,1593,4095,103,623
1784847502.6605,1643,4095,102,623
1784847502.6627,1663,4095,101,623
1784847502.6644,1661,4095,100,623
1784847502.6662,1679,4095,100,586
1784847502.6679,2845,4095,110,586
1784847502.6696,1476,4095,111,586
1784847502.6741,1484,4095,112,586
1784847502.6787,1519,4095,112,586
1784847502.6832,1574,4095,111,586
1784847502.6836,1606,4095,111,586
1784847502.6840,1625,4095,110,586
1784847502.6844,1633,4095,109,586
1784847502.6849,1659,4095,108,586
1784847502.6866,1694,4095,107,671
1784847502.6884,1689,4095,107,671
1784847502.6901,1452,4095,108,671
1784847502.6922,1497,4095,108,671
1784847502.6943,1531,4095,108,671
1784847502.6964,1564,4095,108,671
1784847502.6981,1588,4095,107,671
1784847502.6999,1609,4095,107,671
1784847502.7017,1656,4095,106,671
1784847502.7034,1687,4095,105,671
1784847502.7056,1683,4095,104,638
1784847502.7078,3611,4095,123,638
1784847502.7100,1449,4095,124,638
1784847502.7122,1496,4095,124,638
1784847502.7145,1518,4095,124,638
1784847502.7167,1543,4095,124,638
1784847502.7184,1596,4095,123,638
1784847502.7202,1626,4095,122,638
1784847502.7219,1635,4095,121,638
1784847502.7237,1654,4095,120,638
1784847502.7260,1691,4095,119,801
1784847502.7282,1685,4095,118,801
1784847502.7305,1439,4095,119,801
1784847502.7326,1484,4095,120,801
1784847502.7346,1530,4095,120,801
1784847502.7367,1571,4095,119,801
1784847502.7432,1603,4095,118,801
1784847502.7436,1620,4095,118,801
1784847502.7439,1647,4095,116,801
1784847502.7442,1681,4095,116,801
1784847502.7463,1693,4095,115,754
1784847502.7484,1636,4095,114,754
1784847502.7504,1460,4095,115,754
1784847502.7531,1500,4095,115,754
1784847502.7558,1535,4095,115,754
1784847502.7585,1562,4095,115,754
1784847502.7612,1601,4095,114,754
1784847502.7622,1635,4095,113,754
1784847502.7631,1660,4095,112,754
1784847502.7641,1670,4095,111,754
1784847502.7662,1678,4095,110,703
1784847502.7683,1674,4095,109,703
1784847502.7704,1485,4095,110,703
1784847502.7722,1491,4095,110,703
1784847502.7739,1515,4095,111,703
1784847502.7756,1575,4095,110,703
1784847502.7774,1607,4095,110,703
1784847502.7797,1605,4095,109,703
1784847502.7820,1638,4095,108,703
1784847502.7843,1682,4095,107,703
1784847502.7864,1692,4095,107,662
1784847502.7885,1706,4095,106,662
1784847502.7906,2313,4095,112,662
1784847502.7924,1301,4095,114,662
1784847502.7941,1489,4095,114,662
1784847502.7959,1519,4095,115,662
1784847502.7976,1545,4095,114,662
1784847502.7999,1583,4095,114,662
1784847502.8021,1602,4095,113,662
1784847502.8044,1638,4095,112,662
1784847502.8060,1655,4095,111,714
1784847502.8076,1629,4095,110,714
1784847502.8093,1430,4095,111,714
1784847502.8109,1482,4095,112,714
1784847502.8132,1500,4095,112,714
1784847502.8156,1535,4095,112,714
1784847502.8179,1582,4095,112,714
1784847502.8201,1614,4095,111,714
1784847502.8224,1637,4095,110,714
1784847502.8246,1662,4095,109,714
1784847502.8263,1680,4095,108,682
1784847502.8280,1626,4095,107,682
1784847502.8297,1455,4095,108,682
1784847502.8314,1483,4095,109,682
1784847502.8336,1523,4095,109,682
1784847502.8358,1581,4095,109,682
1784847502.8379,1593,4095,108,682
1784847502.8403,1615,4095,107,682
1784847502.8428,1642,4095,106,682
1784847502.8452,1686,4095,106,682
1784847502.8479,1700,4095,105,647
1784847502.8506,1625,4095,104,647
1784847502.8534,1462,4095,105,647
1784847502.8561,1498,4095,106,647
1784847502.8569,1532,4095,106,647
1784847502.8576,1559,4095,106,647
1784847502.8584,1595,4095,105,647
1784847502.8606,1637,4095,104,647
1784847502.8628,1663,4095,103,647
1784847502.8650,1671,4095,102,647
1784847502.8711,1679,4095,102,609
1784847502.8713,1701,4095,101,609
1784847502.8715,1476,4095,102,609
1784847502.8717,1503,4095,102,609
1784847502.8739,1535,4095,102,609
1784847502.8762,1579,4095,102,609
1784847502.8784,1615,4095,101,609
1784847502.8802,1632,4095,101,609
1784847502.8819,1640,4095,100,609
1784847502.8837,1664,4095,99,609
1784847502.8854,1708,4095,98,573
1784847502.8877,1861,4095,99,573
1784847502.8899,1456,4095,100,573
1784847502.8922,1489,4095,101,573
1784847502.8944,1533,4095,101,573
1784847502.8966,1583,4095,101,573
1784847502.8987,1585,4095,100,573
1784847502.9054,1594,4095,100,573
1784847502.9055,1658,4095,99,573
1784847502.9057,1683,4095,98,573
1784847502.9059,1693,4095,98,567
1784847502.9078,1625,4095,97,567
1784847502.9096,1464,4095,98,567
1784847502.9115,1508,4095,98,567
1784847502.9133,1530,4095,99,567
1784847502.9156,1560,4095,98,567
1784847502.9178,1607,4095,98,567
1784847502.9201,1633,4095,97,567
1784847502.9237,1644,4095,96,567
1784847502.9272,1662,4095,95,567
1784847502.9307,1696,4095,95,534
1784847502.9343,1644,4095,94,534
1784847502.9348,1458,4095,95,534
1784847502.9354,1487,4095,96,534
1784847502.9359,1527,4095,96,534
1784847502.9374,1585,4095,96,534
1784847502.9388,1596,4095,95,534
1784847502.9403,1602,4095,95,534
1784847502.9417,1652,4095,94,534
1784847502.9441,1685,4095,93,534
1784847502.9464,1697,4095,93,510
1784847502.9487,1880,4095,94,510
1784847502.9505,1453,4095,95,510
1784847502.9523,1494,4095,96,510
1784847502.9541,1533,4095,96,510
1784847502.9559,1525,4095,96,510
1784847502.9582,1582,4095,96,510
1784847502.9604,1633,4095,95,510
1784847502.9627,1683,4095,94,510
1784847502.9694,1676,4095,94,510
1784847502.9696,1669,4095,93,513
1784847502.9697,1757,4095,93,513
1784847502.9699,1472,4095,94,513
1784847502.9718,1486,4095,95,513
1784847502.9737,1518,4095,95,513
1784847502.9756,1557,4095,95,513
1784847502.9776,1613,4095,94,513
1784847502.9799,1619,4095,94,513
1784847502.9821,1637,4095,93,513
1784847502.9844,1688,4095,92,513
1784847502.9862,1700,4095,92,502
1784847502.9879,1647,4095,91,502
1784847502.9897,1452,4095,92,502
1784847502.9914,1489,4095,93,502
1784847502.9938,1535,4095,93,502
1784847502.9961,1574,4095,93,502
1784847502.9984,1590,4095,92,502
1784847503.0007,1613,4095,92,502
1784847503.0030,1648,4095,91,502
1784847503.0053,1676,4095,90,502
1784847503.0076,1682,4095,90,477
1784847503.0108,4095,4095,113,477
1784847503.0139,1424,4095,114,477
1784847503.0171,1486,4095,115,477
1784847503.0175,1506,4095,115,477
1784847503.0180,1526,4095,115,477
1784847503.0184,1586,4095,115,477
1784847503.0189,1628,4095,114,477
1784847503.0212,1639,4095,113,477
1784847503.0235,1651,4095,112,477
1784847503.0259,1685,4095,111,710
1784847503.0281,2849,4095,122,710
1784847503.0303,1438,4095,123,710
1784847503.0324,1468,4095,123,710
1784847503.0342,1513,4095,123,710
1784847503.0359,1562,4095,123,710
1784847503.0376,1599,4095,122,710
1784847503.0393,1631,4095,121,710
1784847503.0415,1647,4095,120,710
1784847503.0437,1677,4095,119,710
1784847503.0459,1690,4095,118,791
1784847503.0483,1615,4095,117,791
1784847503.0506,1449,4095,118,791
1784847503.0530,1503,4095,118,791
1784847503.0547,1532,4095,118,791
1784847503.0563,1535,4095,118,791
1784847503.0580,1585,4095,118,791
1784847503.0597,1640,4095,117,791
1784847503.0619,1666,4095,116,791
1784847503.0640,1665,4095,115,791
1784847503.0662,1679,4095,114,744
1784847503.0683,1821,4095,114,744
1784847503.0705,1457,4095,115,744
1784847503.0726,1476,4095,116,744
1784847503.0791,1532,4095,116,744
1784847503.0793,1575,4095,115,744
1784847503.0794,1601,4095,115,744
1784847503.0796,1612,4095,114,744
1784847503.0838,1637,4095,113,744
1784847503.0879,1676,4095,112,744
1784847503.0921,1701,4095,111,716
1784847503.0927,1627,4095,111,716
1784847503.0934,1454,4095,111,716
1784847503.0940,1494,4095,112,716
1784847503.0947,1529,4095,112,716
1784847503.0966,1573,4095,111,716
1784847503.0985,1602,4095,111,716
1784847503.1004,1620,4095,110,716
1784847503.1024,1647,4095,109,716
1784847503.1044,1675,4095,108,716
1784847503.1064,1691,4095,107,673
1784847503.1082,1624,4095,107,673
1784847503.1099,1465,4095,107,673
1784847503.1117,1496,4095,108,673
1784847503.1135,1524,4095,108,673
1784847503.1157,1535,4095,108,673
1784847503.1180,1604,4095,107,673
1784847503.1203,1642,4095,106,673
1784847503.1225,1648,4095,105,673
1784847503.1246,1656,4095,104,673
1784847503.1267,1693,4095,104,632
1784847503.1284,1683,4095,103,632
1784847503.1302,1457,4095,104,632
1784847503.1319,1481,4095,105,632
1784847503.1337,1525,4095,105,632
1784847503.1359,1580,4095,104,632
1784847503.1380,1592,4095,104,632
1784847503.1402,1605,4095,103,632
1784847503.1419,1638,4095,102,632
1784847503.1436,1702,4095,102,632
1784847503.1453,1702,4095,101,606
1784847503.1470,1635,4095,100,606
1784847503.1494,1465,4095,101,606
1784847503.1518,1500,4095,102,606
1784847503.1541,1533,4095,102,606
1784847503.1562,1555,4095,102,606
1784847503.1583,1585,4095,101,606
1784847503.1603,1641,4095,100,606
1784847503.1622,1665,4095,100,606
1784847503.1640,1663,4095,99,606
1784847503.1658,1675,4095,98,569
1784847503.1677,1664,4095,97,569
1784847503.1700,1462,4095,98,569
1784847503.1723,1502,4095,99,569
1784847503.1746,1529,4095,99,569
1784847503.1765,1573,4095,99,569
1784847503.1784,1615,4095,98,569
1784847503.1802,1636,4095,97,569
1784847503.1821,1641,4095,96,569
1784847503.1843,1673,4095,95,569
1784847503.1864,1712,4095,95,536
1784847503.1886,1701,4095,95,536
1784847503.1954,1694,4095,94,536
1784847503.1956,1760,4095,94,536
1784847503.1958,1491,4095,95,536
1784847503.1959,1518,4095,95,536
1784847503.1978,1521,4095,96,536
1784847503.1997,1575,4095,95,536
1784847503.2015,1627,4095,95,536
1784847503.2034,1636,4095,94,536
1784847503.2057,1645,4095,93,512
1784847503.2079,1625,4095,92,512
1784847503.2101,1447,4095,93,512
1784847503.2120,1467,4095,94,512
1784847503.2138,1521,4095,94,512
1784847503.2156,1535,4095,95,512
1784847503.2174,1582,4095,94,512
1784847503.2198,1613,4095,94,512
1784847503.2221,1635,4095,93,512
1784847503.2245,1650,4095,92,512
1784847503.2263,1667,4095,91,495
1784847503.2280,1656,4095,90,495
1784847503.2298,1459,4095,91,495
1784847503.2316,1475,4095,92,495
1784847503.2339,1508,4095,93,495
1784847503.2361,1583,4095,92,495
1784847503.2384,1608,4095,92,495
1784847503.2403,1612,4095,91,495
1784847503.2422,1642,4095,90,495
1784847503.2440,1675,4095,90,495
1784847503.2459,1705,4095,89,475
1784847503.2480,1692,4095,89,475
1784847503.2502,3706,4095,109,475
1784847503.2524,1322,4095,111,475
1784847503.2542,1499,4095,111,475
1784847503.2560,1506,4095,112,475
1784847503.2578,1539,4095,112,475
1784847503.2597,1594,4095,111,475
1784847503.2618,1614,4095,110,475
1784847503.2640,1639,4095,109,475
1784847503.2661,1668,4095,108,682
1784847503.2683,1656,4095,107,682
1784847503.2706,1434,4095,108,682
1784847503.2728,1470,4095,109,682
1784847503.2745,1493,4095,109,682
1784847503.2762,1548,4095,109,682
1784847503.2779,1599,4095,109,682
1784847503.2796,1615,4095,108,682
1784847503.2818,1628,4095,107,682
1784847503.2839,1654,4095,106,682
1784847503.2861,1687,4095,105,650
1784847503.2878,1660,4095,104,650
1784847503.2895,1443,4095,105,650
1784847503.2912,1487,4095,106,650
1784847503.2929,1528,4095,106,650
1784847503.2953,1561,4095,106,650
1784847503.2977,1600,4095,105,650
1784847503.3001,1614,4095,105,650
1784847503.3023,1661,4095,104,650
1784847503.3045,1678,4095,103,650
1784847503.3067,1683,4095,102,616
1784847503.3084,1698,4095,102,616
1784847503.3101,2865,4095,113,616
1784847503.3117,1462,4095,114,616
1784847503.3134,1494,4095,114,616
1784847503.3156,1519,4095,114,616
1784847503.3178,1568,4095,114,616
1784847503.3199,1628,4095,113,616
1784847503.3222,1616,4095,112,616
1784847503.3244,1650,4095,111,616
1784847503.3267,1677,4095,110,703
1784847503.3284,1620,4095,109,703
1784847503.3302,1438,4095,110,703
1784847503.3319,1466,4095,111,703
1784847503.3337,1521,4095,111,703
1784847503.3358,1562,4095,111,703
1784847503.3380,1584,4095,110,703
1784847503.3402,1601,4095,110,703
1784847503.3424,1644,4095,109,703
1784847503.3446,1674,4095,108,703
1784847503.3469,1690,4095,107,671
1784847503.3531,1625,4095,106,671
1784847503.3533,1429,4095,108,671
1784847503.3534,1483,4095,108,671
1784847503.3536,1558,4095,108,671
1784847503.3560,1576,4095,108,671
1784847503.3583,1584,4095,107,671
1784847503.3607,1634,4095,106,671
1784847503.3624,1662,4095,105,671
1784847503.3640,1678,4095,104,671
1784847503.3657,1678,4095,104,632
1784847503.3674,1660,4095,103,632
1784847503.3696,1470,4095,104,632
1784847503.3717,1490,4095,104,632
1784847503.3739,1513,4095,104,632
1784847503.3761,1570,4095,104,632
1784847503.3783,1607,4095,103,632
1784847503.3804,1618,4095,103,632
1784847503.3822,1644,4095,102,632
1784847503.3840,1668,4095,101,632
1784847503.3859,1697,4095,100,595
1784847503.3877,1642,4095,99,595
1784847503.3898,1454,4095,100,595
1784847503.3920,1487,4095,101,595
1784847503.3942,1539,4095,101,595
