host_time_s,chA_raw,chB_env
1784656987.2772,618,3471
1784656987.2791,616,3469
1784656987.2814,612,3445
1784656987.2844,611,3438
1784656987.2866,609,3432
1784656987.2891,607,3420
1784656987.2920,602,3410
1784656987.2949,604,3402
1784656987.2977,600,3394
1784656987.3007,605,3387
1784656987.3032,600,3376
1784656987.3057,596,3373
1784656987.3082,593,3361
1784656987.3106,589,3352
1784656987.3130,587,3348
1784656987.3156,583,3333
1784656987.3180,582,3320
1784656987.3204,581,3233
1784656987.3229,586,3317
1784656987.3253,581,3330
1784656987.3278,577,3292
1784656987.3302,576,3293
1784656987.3326,573,3281
1784656987.3351,567,3275
1784656987.3374,567,3262
1784656987.3397,570,3248
1784656987.3436,562,3249
1784656987.3467,562,3246
1784656987.3493,560,3231
1784656987.3522,560,3213
1784656987.3559,557,3216
1784656987.3583,556,3213
1784656987.3638,553,3205
1784656987.3662,553,3195
1784656987.3685,552,3191
1784656987.3712,547,3175
1784656987.3737,547,3168
1784656987.3759,546,3174
1784656987.3781,544,3165
1784656987.3803,544,3158
1784656987.3827,541,3148
1784656987.3849,536,3140
1784656987.3872,535,3146
1784656987.3896,533,3138
1784656987.3919,534,3128
1784656987.3942,533,3111
1784656987.3965,530,3103
1784656987.3988,526,3104
1784656987.4011,524,3093
1784656987.4035,525,3090
1784656987.4058,523,3081
1784656987.4081,522,3066
1784656987.4105,521,3059
1784656987.4128,514,3059
1784656987.4152,515,3058
1784656987.4176,511,3044
1784656987.4200,509,3038
1784656987.4223,510,3020
1784656987.4247,510,3026
1784656987.4271,504,3047
1784656987.4294,512,3049
1784656987.4318,516,3057
1784656987.4346,514,3056
1784656987.4371,513,3047
1784656987.4395,502,3047
1784656987.4418,506,3018
1784656987.4441,507,3037
1784656987.4464,506,3024
1784656987.4489,507,2991
1784656987.4513,502,3064
1784656987.4536,507,3045
1784656987.4559,506,3066
1784656987.4584,500,3031
1784656987.4607,502,3021
1784656987.4630,502,3043
1784656987.4657,510,3069
1784656987.4681,509,3028
1784656987.4704,511,3035
1784656987.4727,511,2994
1784656987.4751,509,3030
1784656987.4776,506,3034
1784656987.4802,512,3046
1784656987.4829,508,3051
1784656987.4853,509,3042
1784656987.4874,510,3035
1784656987.4896,518,3091
1784656987.4920,519,3115
1784656987.4943,516,3091
1784656987.4966,523,3086
1784656987.4989,520,3083
1784656987.5013,514,3068
1784656987.5036,521,3043
1784656987.5060,514,3051
1784656987.5083,515,3036
1784656987.5105,513,3077
1784656987.5127,518,3087
1784656987.5149,515,3075
1784656987.5173,514,3072
1784656987.5196,512,3056
1784656987.5219,517,3097
1784656987.5241,515,3073
1784656987.5266,516,3062
1784656987.5289,520,3054
1784656987.5311,518,3037
1784656987.5333,515,3036
1784656987.5356,510,3043
1784656987.5378,511,3049
1784656987.5404,515,3059
1784656987.5429,526,3055
1784656987.5672,524,3077
1784656987.5718,522,3042
1784656987.5741,519,3033
1784656987.5769,513,3028
1784656987.5798,513,3034
1784656987.5829,511,3041
1784656987.5851,553,3328
1784656987.5873,560,3315
1784656987.5896,562,3308
1784656987.5918,565,3290
1784656987.5939,604,3527
1784656987.5960,610,3511
1784656987.5981,609,3498
1784656987.6003,610,3483
1784656987.6027,4095,4095
1784656987.6051,2934,4095
1784656987.6076,2832,4095
1784656987.6099,4095,4095
1784656988.3723,4095,4095
1784656988.3762,3238,4095
1784656988.3791,2526,4095
1784656988.3819,4095,4095
1784656988.3846,4095,4095
1784656988.3873,4095,4095
1784656988.3899,4095,4095
1784656988.3927,4095,4095
1784656988.3954,4095,4095
1784656988.3982,3208,4095
1784656988.4009,2500,4095
1784656988.4037,2101,4095
1784656988.4064,4095,4095
1784656988.4091,4095,4095
1784656988.4118,3209,4095
1784656988.4148,2494,4095
1784656988.4171,4095,4095
1784656988.4198,4095,4095
1784656988.4226,4095,4095
1784656988.4267,3218,4095
1784656988.4295,4095,4095
1784656988.4324,3209,4095
1784656988.4352,2499,4095
1784656988.4383,2101,4095
1784656988.4413,4095,4095
1784656988.4443,4095,4095
1784656988.4475,3213,4095
1784656988.4504,4095,4095
1784656988.4542,4095,4095
1784656988.4567,4095,4095
1784656988.4591,4095,4095
1784656988.4617,4095,4095
1784656988.4645,4095,4095
1784656988.4675,4095,4095
1784656988.4707,4095,4095
1784656988.4740,3220,4095
1784656988.4772,2506,4095
1784656988.4807,2105,4095
1784656988.4839,1821,4095
1784656988.4874,1601,4095
1784656988.4904,1443,4095
1784656988.4931,1333,4095
1784656988.4957,1252,4095
1784656988.4982,1192,4095
1784656988.5006,1145,4095
1784656988.5238,1109,4095
1784656988.5269,1076,4095
1784656988.5299,1058,4095
1784656988.5637,1034,4095
1784656988.5666,1019,4095
1784656988.5701,1001,4095
1784656988.5728,980,4095
1784656988.5749,969,4095
1784656988.5775,951,4095
1784656988.5800,4095,4095
1784656988.5824,4095,4095
1784656988.5852,4095,4095
1784656988.5877,4095,4095
1784656988.5916,4095,4095
1784656988.6029,4095,4095
1784656988.6056,4095,4095
1784656988.6186,4095,4095
1784656988.6230,4095,4095
1784656988.6263,4095,4095
1784656988.6339,3213,4095
1784656988.6367,2502,4095
1784656988.6403,2106,4095
1784656988.6431,1822,4095
1784656988.6468,1607,4095
1784656988.6602,1448,4095
1784656988.6744,1342,4095
1784656988.6808,1257,4095
1784656988.6875,1195,4095
1784656988.6917,1148,4095
1784656988.6953,1114,4095
1784656988.7047,1083,4095
1784656988.7110,1066,4095
1784656988.7168,1044,4095
1784656988.7254,1022,4095
1784656988.7283,1002,4095
1784656988.7340,985,4095
1784656988.7379,970,4095
1784656988.7401,958,4095
1784656988.7424,944,4095
1784656988.7448,925,4095
1784656988.7476,917,4095
1784656988.7508,902,4095
1784656988.7538,907,4095
1784656988.7566,893,4095
1784656988.7589,879,4095
1784656988.7610,869,4095
1784656988.7638,858,4095
1784656988.7660,848,4095
1784656988.7693,836,4095
1784656988.7717,830,4095
1784656988.7740,819,4095
1784656988.7861,811,4095
1784656988.7919,793,4095
1784656988.7943,792,4095
1784656988.8070,779,4095
1784656988.8111,779,4095
1784656988.8188,772,4095
1784656988.8209,768,4095
1784656988.8234,761,4095
1784656988.8264,756,4095
1784656988.8298,753,4095
1784656988.8334,749,4086
1784656988.8404,747,4081
1784656988.8458,743,4066
1784656988.8510,738,4042
1784656988.8561,736,4020
1784656988.8602,731,4004
1784656988.8643,726,3993
1784656988.8712,722,4009
1784656988.8770,719,3940
1784656988.8821,718,3946
1784656988.8905,718,3966
1784656988.8928,715,3850
1784656988.8960,711,3896
1784656988.8998,706,3831
1784656988.9024,704,3838
1784656988.9046,699,3850
1784656988.9068,696,3833
1784656988.9091,694,3813
1784656988.9114,691,3811
1784656988.9144,688,3780
1784656988.9169,686,3776
1784656988.9195,682,3778
1784656988.9221,678,3753
1784656988.9243,674,3715
1784656988.9266,670,3698
1784656988.9294,669,3695
1784656988.9327,667,3715
1784656988.9358,666,3690
1784656988.9535,661,3672
1784656988.9586,659,3644
1784656988.9608,654,3645
1784656988.9741,653,3640
1784656988.9779,649,3621
1784656988.9828,647,3623
1784656988.9890,644,3587
1784656988.9913,646,3596
1784656988.9945,643,3555
1784656988.9985,638,3549
1784656989.0017,636,3560
1784656989.0086,632,3540
1784656989.0146,630,3533
1784656989.0191,628,3530
1784656989.0249,627,3512
1784656989.0306,627,3502
1784656989.0373,624,3495
1784656989.0422,624,3484
1784656989.0518,617,3483
1784656989.0554,616,3467
1784656989.0635,614,3450
1784656989.0674,613,3445
1784656989.0718,609,3411
1784656989.0795,608,3426
1784656989.0827,605,3405
1784656989.0868,603,3408
1784656989.0905,598,3393
1784656989.0935,597,3399
1784656989.0964,595,3383
1784656989.0988,592,3372
1784656989.1011,593,3366
1784656989.1034,590,3344
1784656989.1055,590,3350
1784656989.1076,588,3341
1784656989.1097,586,3331
1784656989.1119,587,3322
1784656989.1142,578,3316
1784656989.1163,576,3306
1784656989.1184,576,3303
1784656989.1208,575,3291
1784656989.1232,574,3284
1784656989.1259,571,3270
1784656989.1333,569,3271
1784656989.1369,563,3257
1784656989.1394,561,3253
1784656989.1420,558,3252
1784656989.1444,558,3240
1784656989.1471,553,3234
1784656989.1504,555,3215
1784656989.1531,558,3214
1784656989.1557,555,3214
1784656989.1580,547,3199
1784656989.1601,544,3192
1784656989.1624,543,3175
1784656989.1649,543,3193
1784656989.1673,541,3174
1784656989.1694,541,3169
1784656989.1718,541,3162
1784656989.1738,541,3150
1784656989.1759,532,3156
1784656989.1779,532,3122
1784656989.1802,531,3134
1784656989.1827,532,3132
1784656989.1848,530,3118
1784656989.1891,529,3106
1784656989.1912,529,3108
1784656989.1933,527,3089
1784656989.1955,524,3089
1784656989.1979,524,3090
1784656989.2000,520,3073
1784656989.2021,519,3073
1784656989.2043,517,3060
1784656989.2064,515,3056
1784656989.2084,514,3040
1784656989.2105,520,3035
1784656989.2130,517,3044
1784656989.2152,513,3028
1784656989.2173,510,3023
1784656989.2194,509,3029
1784656989.2216,508,3037
1784656989.2237,511,3014
1784656989.2257,512,3038
1784656989.2278,507,3038
1784656989.2303,507,3043
1784656989.2328,506,3022
1784656989.2384,500,3023
1784656989.2409,505,3034
1784656989.2432,498,3031
1784656989.2456,496,3025
1784656989.2483,498,3028
1784656989.2508,507,3036
1784656989.2531,506,3031
1784656989.2553,494,3030
1784656989.2576,496,3021
1784656989.2598,495,3028
1784656989.2626,499,3034
1784656989.2657,503,3022
1784656989.2680,496,3022
1784656989.2702,498,3032
1784656989.2725,503,3036
1784656989.2748,500,3029
1784656989.2771,498,3022
1784656989.2799,499,3045
1784656989.2822,501,3030
1784656989.2845,499,3021
1784656989.2873,500,3014
1784656989.2897,500,3033
1784656989.2919,507,3030
1784656989.2941,505,3024
1784656989.2996,502,3019
1784656989.3023,504,3022
1784656989.3050,502,3028
1784656989.3075,508,3032
1784656989.3100,506,3021
1784656989.3127,510,3010
1784656989.3150,511,3028
1784656989.3172,511,3028
1784656989.3195,511,3025
1784656989.3217,509,3015
1784656989.3240,507,3034
1784656989.3263,506,3029
1784656989.3289,507,3025
1784656989.3316,506,3026
1784656989.3339,510,3031
1784656989.3361,509,2996
1784656989.3383,509,3036
1784656989.3406,507,3011
1784656989.3429,502,3021
1784656989.3482,507,3027
1784656989.3509,506,3030
1784656989.3535,505,3028
1784656989.3560,509,3023
1784656989.3590,510,3032
1784656989.3614,509,3026
1784656989.3640,507,3015
1784656989.3664,505,3030
1784656989.3686,509,3033
1784656989.3708,503,3039
1784656989.3731,506,3031
1784656989.3756,505,3021
1784656989.3779,509,3060
1784656989.3801,511,3037
1784656989.3823,508,3022
1784656989.3846,502,3020
1784656989.3869,504,3026
1784656989.3891,502,3031
1784656989.3942,503,3029
1784656989.3969,505,3023
1784656989.3996,502,3026
1784656989.4021,505,3027
1784656989.4047,503,3015
1784656989.4072,506,3023
1784656989.4095,501,3028
1784656989.4119,506,3029
1784656989.4144,507,3031
1784656989.4167,502,3026
1784656989.4189,509,3033
1784656989.4211,510,3033
1784656989.4235,509,3034
1784656989.4257,506,3015
1784656989.4280,498,3024
1784656989.4302,502,3037
1784656989.4326,502,3033
1784656989.4348,503,3022
1784656989.4383,502,3044
1784656989.4424,507,3026
1784656989.4452,507,3001
1784656989.4477,507,3032
1784656989.4502,502,3022
1784656989.4529,505,3025
1784656989.4555,503,3028
1784656989.4577,503,3027
1784656989.4599,502,3010
1784656989.4625,507,3030
1784656989.4650,502,3033
1784656989.4674,509,3029
1784656989.4698,504,3025
1784656989.4720,504,3025
1784656989.4743,514,3028
1784656989.4766,512,3032
1784656989.4788,511,3028
1784656989.4810,510,3025
1784656989.4833,510,3030
1784656989.4880,514,3027
1784656989.4903,511,3023
1784656989.4927,510,3023
1784656989.4950,508,3035
1784656989.4973,508,3035
1784656989.4996,507,3029
1784656989.5019,508,3017
1784656989.5041,509,3034
1784656989.5063,509,3030
1784656989.5086,509,3040
1784656989.5114,507,3054
1784656989.5149,506,3059
1784656989.5188,500,3031
1784656989.5226,501,3023
1784656989.5265,500,3028
1784656989.5303,506,3030
1784656989.5356,508,3034
1784656989.5383,508,3035
1784656989.5411,501,3023
1784656989.5436,502,3018
1784656989.5462,508,3047
1784656989.5492,507,3030
1784656989.5524,503,3023
1784656989.5552,508,3033
1784656989.5591,509,3039
1784656989.5618,508,3034
1784656989.5650,502,3026
1784656989.5689,502,3020
1784656989.5727,507,3034
1784656989.5754,502,3032
1784656989.5779,502,3025
1784656989.5832,502,3030
1784656989.5860,507,3029
1784656989.5887,507,3024
1784656989.5912,504,3027
1784656989.5938,502,3025
1784656989.5964,508,3025
1784656989.5999,507,3037
1784656989.6029,506,3031
1784656989.6064,506,3025
1784656989.6092,506,3024
1784656989.6117,506,3030
1784656989.6142,505,3028
1784656989.6167,507,3005
1784656989.6192,501,3028
1784656989.6217,504,3030
1784656989.6243,506,3034
1784656989.6291,505,3026
1784656989.6312,503,3040
1784656989.6333,507,3036
1784656989.6354,507,3039
1784656989.6374,504,3034
1784656989.6397,504,3056
1784656989.6423,505,3032
1784656989.6447,502,3031
1784656989.6474,507,3012
1784656989.6497,508,3031
1784656989.6519,508,3041
1784656989.6543,509,3031
1784656989.6566,505,3030
1784656989.6589,506,3023
1784656989.6613,506,3033
1784656989.6637,502,3028
1784656989.6659,502,3028
1784656989.6681,502,3022
1784656989.6704,507,3047
1784656989.6727,508,3043
1784656989.6775,511,3038
1784656989.6798,508,3035
1784656989.6821,505,3022
1784656989.6844,505,3031
1784656989.6868,507,3035
1784656989.6892,503,3020
1784656989.6915,503,3031
1784656989.6937,508,3049
1784656989.6963,508,3032
1784656989.6987,508,3027
1784656989.7009,506,3024
1784656989.7032,507,3028
1784656989.7055,508,3035
1784656989.7078,507,3024
1784656989.7100,502,3023
1784656989.7124,509,3035
1784656989.7147,508,3031
1784656989.7170,500,3025
1784656989.7193,502,3023
1784656989.7244,505,3034
1784656989.7272,502,3031
1784656989.7299,503,3023
1784656989.7324,504,3021
1784656989.7350,510,3032
1784656989.7383,506,3025
1784656989.7416,502,3021
1784656989.7448,513,3037
1784656989.7480,511,3019
1784656989.7515,512,3029
1784656989.7549,510,3030
1784656989.7581,510,3019
1784656989.7608,511,3025
1784656989.7634,515,3032
1784656989.7659,511,3039
1784656989.7711,509,3038
1784656989.7732,510,3021
1784656989.7752,511,3008
1784656989.7773,511,3033
1784656989.7796,508,3028
1784656989.7820,502,3015
1784656989.7844,506,3036
1784656989.7866,509,3041
1784656989.7888,508,3033
1784656989.7911,505,3028
1784656989.7933,505,3052
1784656989.7960,506,3036
1784656989.7983,506,3037
1784656989.8007,503,3014
1784656989.8029,508,3078
1784656989.8051,505,3031
1784656989.8073,498,3032
1784656989.8096,503,3025
1784656989.8119,502,3017
1784656989.8141,500,3032
1784656989.8192,502,3042
1784656989.8215,501,3024
1784656989.8238,513,3021
1784656989.8261,511,3025
1784656989.8285,508,3038
1784656989.8311,507,3028
1784656989.8333,506,3020
1784656989.8356,509,3032
1784656989.8379,506,3032
1784656989.8401,502,3025
1784656989.8424,507,3032
1784656989.8450,509,3041
1784656989.8479,508,3041
1784656989.8502,508,3024
1784656989.8525,502,3036
1784656989.8547,506,3026
1784656989.8569,507,3021
1784656989.8592,508,3039
1784656989.8644,506,3022
1784656989.8673,509,3032
1784656989.8700,510,3042
1784656989.8726,510,3036
1784656989.8752,507,3022
1784656989.8778,507,3037
1784656989.8809,506,3029
1784656989.8841,501,3058
1784656989.8874,506,3035
1784656989.8909,509,3029
1784656989.8934,511,3040
1784656989.8962,510,3037
1784656989.8987,506,3026
1784656989.9013,504,3014
1784656989.9040,506,3028
1784656989.9065,503,3024
1784656989.9116,503,3027
1784656989.9136,501,3021
1784656989.9156,509,3015
1784656989.9176,509,3029
1784656989.9198,505,3019
1784656989.9221,501,3025
1784656989.9248,508,3019
1784656989.9271,511,3028
1784656989.9298,513,3027
1784656989.9320,508,3026
1784656989.9344,513,3037
1784656989.9366,519,3042
1784656989.9389,515,3035
1784656989.9415,515,3024
1784656989.9437,510,3022
1784656989.9460,510,3003
1784656989.9483,509,3065
1784656989.9505,508,3023
1784656989.9527,508,3044
1784656989.9548,511,3036
1784656989.9599,510,3035
1784656989.9624,506,3021
1784656989.9649,505,3022
1784656989.9673,505,3020
1784656989.9698,505,3031
1784656989.9724,502,3027
1784656989.9756,506,3021
1784656989.9787,507,3036
1784656989.9815,509,3033
1784656989.9843,506,3022
1784656989.9871,502,3019
1784656989.9899,507,3058
1784656989.9926,506,3040
1784656989.9952,505,3031
1784656989.9977,507,3026
1784656990.0004,510,3033
1784656990.0030,510,3034
1784656990.0078,508,3025
1784656990.0098,506,3033
1784656990.0117,509,3031
1784656990.0139,507,3023
1784656990.0160,502,3031
1784656990.0181,505,3026
1784656990.0207,512,3028
1784656990.0229,511,3020
1784656990.0250,510,3030
1784656990.0271,509,3020
1784656990.0301,503,3020
1784656990.0327,507,3024
1784656990.0352,508,3043
1784656990.0376,507,3034
1784656990.0401,503,3033
1784656990.0427,509,3042
1784656990.0452,515,3019
1784656990.0478,509,3027
1784656990.0526,507,3026
1784656990.0556,507,3001
1784656990.0579,506,3033
1784656990.0600,505,3047
1784656990.0621,505,3021
1784656990.0643,509,3033
1784656990.0668,509,3034
1784656990.0690,509,3042
1784656990.0714,507,3001
1784656990.0736,505,3010
1784656990.0759,503,3025
1784656990.0784,506,3026
1784656990.0812,506,3017
1784656990.0836,508,3037
1784656990.0858,511,3040
1784656990.0881,507,3030
1784656990.0904,501,3026
1784656990.0927,504,3021
1784656990.0949,504,3035
1784656990.0995,499,3025
1784656990.1030,506,3021
1784656990.1058,506,3021
1784656990.1084,509,3040
1784656990.1109,508,3031
1784656990.1138,504,3036
1784656990.1171,506,3021
1784656990.1203,506,3041
1784656990.1234,505,3034
1784656990.1264,505,3030
1784656990.1291,502,3023
1784656990.1326,506,3031
1784656990.1361,509,3038
1784656990.1396,508,3038
1784656990.1427,507,3026
1784656990.1482,501,3020
1784656990.1503,503,3038
1784656990.1525,503,3027
1784656990.1546,502,3078
1784656990.1566,505,3027
1784656990.1588,504,3041
1784656990.1614,506,3028
1784656990.1640,502,3025
1784656990.1663,501,3020
1784656990.1686,503,3029
1784656990.1709,497,3028
1784656990.1731,499,3028
1784656990.1753,499,3029
1784656990.1778,506,3037
1784656990.1801,507,3039
1784656990.1824,504,3031
1784656990.1847,504,3025
1784656990.1870,505,3038
1784656990.1892,504,3039
1784656990.1937,505,3021
1784656990.1968,502,3034
1784656990.1991,506,3032
1784656990.2012,508,3039
1784656990.2034,507,3029
1784656990.2058,506,3026
1784656990.2085,498,3046
1784656990.2108,502,3024
1784656990.2136,503,3039
1784656990.2159,500,3028
1784656990.2182,506,3026
1784656990.2205,510,3049
1784656990.2227,510,3032
1784656990.2250,508,3030
1784656990.2272,504,3028
1784656990.2296,505,3033
1784656990.2318,505,3024
1784656990.2341,501,3023
1784656990.2363,504,3035
1784656990.2412,508,3042
1784656990.2446,513,3038
1784656990.2471,507,3019
1784656990.2495,505,3028
1784656990.2518,505,3016
1784656990.2543,506,3031
1784656990.2580,506,3025
1784656990.2617,503,3023
1784656990.2651,508,3038
1784656990.2693,513,3037
1784656990.2736,511,3022
1784656990.2779,509,3029
1784656990.2822,507,3025
1784656990.2888,508,3030
1784656990.2911,506,3035
1784656990.2933,504,3031
1784656990.2960,506,3026
1784656990.2988,509,3032
1784656990.3020,508,3047
1784656990.3055,506,3026
1784656990.3084,501,3018
1784656990.3115,506,3029
1784656990.3145,503,3036
1784656990.3179,501,3028
1784656990.3211,501,3044
1784656990.3251,509,3013
1784656990.3284,510,3058
1784656990.3309,509,3028
1784656990.3368,505,3058
1784656990.3395,502,3024
1784656990.3423,506,3028
1784656990.3449,502,3024
1784656990.3474,501,3016
1784656990.3503,509,3034
1784656990.3539,509,3026
1784656990.3574,507,3013
1784656990.3606,501,3023
1784656990.3639,504,3013
1784656990.3675,506,3032
1784656990.3713,502,3014
1784656990.3748,503,3027
1784656990.3777,503,3020
1784656990.3830,510,3048
1784656990.3858,509,3031
1784656990.3879,506,3024
1784656990.3901,502,3020
1784656990.3922,506,3026
1784656990.3946,504,3029
1784656990.3972,505,3066
1784656990.3995,502,3027
1784656990.4017,506,3046
1784656990.4039,508,3038
1784656990.4062,490,3030
1784656990.4085,493,3062
1784656990.4108,498,3033
1784656990.4134,500,3029
1784656990.4158,501,3011
1784656990.4180,503,3008
1784656990.4203,501,3043
1784656990.4226,505,3018
1784656990.4249,502,3049
1784656990.4272,500,3024
1784656990.4328,498,3018
1784656990.4355,502,3033
1784656990.4381,507,3028
1784656990.4406,504,3016
1784656990.4433,507,3038
1784656990.4465,508,3054
1784656990.4489,507,3031
1784656990.4510,507,3027
1784656990.4530,502,3041
1784656990.4550,504,3022
1784656990.4573,501,3029
1784656990.4597,503,3026
1784656990.4619,502,3023
1784656990.4642,511,3037
1784656990.4666,512,3059
1784656990.4688,510,3032
1784656990.4710,504,3023
1784656990.4733,509,3038
1784656990.4790,500,3030
1784656990.4818,497,3025
1784656990.4845,502,3012
1784656990.4870,507,3067
1784656990.4897,506,3037
1784656990.4935,508,3033
1784656990.4964,506,3030
1784656990.4999,504,3030
1784656990.5040,501,3032
1784656990.5075,505,3037
1784656990.5103,503,3024
1784656990.5131,507,3039
1784656990.5156,508,3038
1784656990.5181,507,3019
1784656990.5207,508,3022
1784656990.5259,506,3028
1784656990.5281,506,3032
1784656990.5302,502,3036
1784656990.5322,502,3022
1784656990.5343,502,3024
1784656990.5368,507,3035
1784656990.5393,507,3034
1784656990.5416,506,3023
1784656990.5438,501,3030
1784656990.5466,506,3028
1784656990.5489,503,3038
1784656990.5512,502,3040
1784656990.5536,510,3020
1784656990.5560,510,3040
1784656990.5582,512,3022
1784656990.5605,509,3032
1784656990.5627,510,3027
1784656990.5650,507,3023
1784656990.5672,507,3014
1784656990.5729,504,3023
1784656990.5755,503,3022
1784656990.5783,508,3036
1784656990.5809,510,3040
1784656990.5835,508,3030
1784656990.5871,507,3026
1784656990.5904,503,3011
1784656990.5940,503,3019
1784656990.5971,503,3027
1784656990.6010,506,3038
1784656990.6047,503,3027
1784656990.6077,509,3026
1784656990.6103,509,3036
1784656990.6127,507,3026
1784656990.6152,501,3032
1784656990.6206,504,3027
1784656990.6226,506,3032
1784656990.6248,505,3019
1784656990.6268,503,3023
1784656990.6290,509,3044
1784656990.6316,510,3043
1784656990.6339,509,3032
1784656990.6362,507,3031
1784656990.6386,503,3028
1784656990.6408,506,3036
1784656990.6430,508,3038
1784656990.6458,506,3029
1784656990.6483,507,3036
1784656990.6506,511,3038
1784656990.6528,508,3038
1784656990.6551,500,3025
1784656990.6574,500,3025
1784656990.6597,502,3033
1784656990.6619,508,3035
1784656990.6662,506,3029
1784656990.6698,504,3023
1784656990.6725,508,3036
1784656990.6751,507,3044
1784656990.6777,505,3030
1784656990.6814,504,3023
1784656990.6844,508,3045
1784656990.6879,506,3023
1784656990.6910,504,3031
1784656990.6938,500,3023
1784656990.6968,501,3031
1784656990.7004,508,3035
1784656990.7043,508,3021
1784656990.7073,504,3023
1784656990.7102,502,3022
1784656990.7157,502,2995
1784656990.7178,503,3022
1784656990.7199,502,3022
1784656990.7220,509,3005
1784656990.7242,509,3041
1784656990.7267,509,3032
1784656990.7297,506,3027
1784656990.7319,497,3016
1784656990.7341,508,3033
1784656990.7364,504,3042
1784656990.7387,504,3016
1784656990.7409,508,3021
1784656990.7433,507,3086
1784656990.7457,510,3036
1784656990.7480,508,3032
1784656990.7502,504,3023
1784656990.7525,510,3036
1784656990.7548,505,3035
1784656990.7571,505,3023
1784656990.7625,507,3018
1784656990.7648,512,3033
1784656990.7670,511,3036
1784656990.7694,511,3029
1784656990.7718,509,3026
1784656990.7744,507,3031
1784656990.7767,507,3034
1784656990.7794,503,3019
1784656990.7817,505,3021
1784656990.7839,506,3035
1784656990.7861,507,3032
1784656990.7884,508,3034
1784656990.7907,503,3027
1784656990.7929,500,3022
1784656990.7952,506,3032
1784656990.7975,505,3009
1784656990.7998,501,3025
1784656990.8020,504,3044
1784656990.8044,508,3036
1784656990.8102,506,3032
1784656990.8130,503,3015
1784656990.8157,504,3015
1784656990.8182,504,3043
1784656990.8210,502,3034
1784656990.8241,506,3025
1784656990.8272,502,3025
1784656990.8305,508,3039
1784656990.8341,510,3016
1784656990.8375,508,3042
1784656990.8409,508,3048
1784656990.8436,510,3023
1784656990.8461,510,3049
1784656990.8486,509,3038
1784656990.8510,508,3010
1784656990.8566,509,3035
1784656990.8594,508,3036
1784656990.8622,508,3031
1784656990.8649,500,3059
1784656990.8674,509,3037
1784656990.8708,510,3040
1784656990.8741,506,3039
1784656990.8771,500,3024
1784656990.8800,501,3029
1784656990.8836,506,3038
1784656990.8870,504,3029
1784656990.8904,501,3024
1784656990.8931,500,3018
1784656990.8957,505,3028
1784656990.8982,500,3019
1784656990.9039,503,3029
1784656990.9060,504,3036
1784656990.9081,509,3027
1784656990.9102,508,3034
1784656990.9123,507,3028
1784656990.9148,506,3034
1784656990.9171,507,3031
1784656990.9194,508,3041
1784656990.9217,509,3037
1784656990.9239,508,3030
1784656990.9262,510,3034
1784656990.9288,511,3055
1784656990.9313,509,3020
1784656990.9337,506,3006
1784656990.9360,502,3026
1784656990.9383,506,3017
1784656990.9406,502,3018
1784656990.9428,502,3023
1784656990.9450,499,3039
1784656990.9506,510,3033
1784656990.9533,509,3046
1784656990.9561,507,3032
1784656990.9586,502,3021
1784656990.9612,504,3024
1784656990.9645,507,3035
1784656990.9676,506,3020
1784656990.9709,503,3034
1784656990.9738,510,3032
1784656990.9766,509,3043
1784656990.9793,508,3028
1784656990.9828,505,3016
1784656990.9864,505,3035
1784656990.9903,505,3033
1784656990.9932,507,3040
1784656990.9993,503,3019
1784656991.0021,506,3027
1784656991.0047,509,3031
1784656991.0072,506,3029
1784656991.0099,508,3031
1784656991.0129,505,3025
1784656991.0157,503,3026
1784656991.0190,504,3068
1784656991.0221,500,3027
1784656991.0251,502,2995
1784656991.0274,508,3045
1784656991.0300,509,3030
1784656991.0328,508,3023
1784656991.0354,503,3022
1784656991.0379,508,3028
1784656991.0405,504,3040
1784656991.0482,506,3027
1784656991.0509,504,3021
1784656991.0536,507,3025
1784656991.0562,507,3033
1784656991.0588,506,3033
1784656991.0615,509,3031
1784656991.0651,508,3023
1784656991.0686,506,3027
1784656991.0722,503,3059
1784656991.0751,506,3031
1784656991.0777,506,3033
1784656991.0802,509,3077
1784656991.0828,511,3026
1784656991.0854,509,3064
1784656991.0880,504,3019
1784656991.0906,507,3025
1784656991.0931,507,3035
1784656991.0959,503,3028
1784656991.0983,505,3037
1784656991.1011,509,3031
1784656991.1059,508,3039
1784656991.1096,508,3023
1784656991.1123,507,3024
1784656991.1149,502,3033
1784656991.1174,504,3034
1784656991.1200,505,3025
1784656991.1234,500,3022
1784656991.1263,505,3039
1784656991.1295,514,3040
1784656991.1329,508,3025
1784656991.1363,513,3015
1784656991.1398,509,3039
1784656991.1431,511,3031
1784656991.1460,511,3044
1784656991.1486,506,3009
1784656991.1544,507,3034
1784656991.1564,513,3029
1784656991.1586,509,3027
1784656991.1608,508,3024
1784656991.1630,506,3027
1784656991.1656,510,3028
1784656991.1679,503,3026
1784656991.1701,507,3026
1784656991.1724,503,3012
1784656991.1748,508,3029
1784656991.1772,509,3046
1784656991.1808,504,3025
1784656991.1852,502,3020
1784656991.1896,503,3024
1784656991.1937,506,3030
1784656991.1980,507,3027
1784656991.2032,508,3021
1784656991.2056,508,3023
1784656991.2076,510,3034
1784656991.2097,508,3030
1784656991.2119,502,3028
1784656991.2143,507,3033
1784656991.2166,503,3038
1784656991.2189,506,3048
1784656991.2212,506,3024
1784656991.2236,509,3030
1784656991.2258,510,3030
1784656991.2285,509,3033
1784656991.2309,507,3020
1784656991.2332,503,3026
1784656991.2355,509,3032
1784656991.2377,507,3035
1784656991.2399,501,3027
1784656991.2421,508,3033
1784656991.2445,508,3027
1784656991.2501,508,3029
1784656991.2525,506,3024
1784656991.2547,503,3022
1784656991.2568,506,3028
1784656991.2590,506,3033
1784656991.2613,505,3021
1784656991.2636,500,3025
1784656991.2658,509,3007
1784656991.2680,508,3042
1784656991.2704,506,3024
1784656991.2726,503,3045
1784656991.2749,507,3038
1784656991.2774,507,3032
1784656991.2800,508,3023
1784656991.2823,509,3022
1784656991.2846,509,3027
1784656991.2869,512,3037
1784656991.2893,511,3027
1784656991.2916,509,3030
1784656991.2976,506,3024
1784656991.2998,510,3037
1784656991.3020,509,3032
1784656991.3039,496,3023
1784656991.3060,499,3029
1784656991.3085,501,3022
1784656991.3108,506,3031
1784656991.3132,501,3011
1784656991.3153,505,3020
1784656991.3174,503,3065
1784656991.3196,507,3029
1784656991.3217,505,3027
1784656991.3239,501,3024
1784656991.3261,507,3036
1784656991.3282,508,3047
1784656991.3303,510,3033
1784656991.3324,507,3008
1784656991.3346,506,3030
1784656991.3368,507,3049
1784656991.3389,507,3031
1784656991.3451,505,3030
1784656991.3473,510,3032
1784656991.3494,509,3032
1784656991.3515,511,3028
1784656991.3536,509,3028
1784656991.3562,505,2975
1784656991.3583,502,3032
1784656991.3606,502,3036
1784656991.3629,501,3013
1784656991.3651,506,3021
1784656991.3672,508,3039
1784656991.3693,509,3035
1784656991.3714,506,3026
1784656991.3736,502,3020
1784656991.3757,502,3015
1784656991.3779,506,3035
1784656991.3800,506,3031
1784656991.3821,504,3025
1784656991.3843,506,3033
1784656991.3864,506,3032
1784656991.3920,506,3028
1784656991.3941,497,3022
1784656991.3963,496,2992
1784656991.3985,502,3038
1784656991.4007,503,3104
1784656991.4032,504,3045
1784656991.4055,505,3027
1784656991.4077,508,3051
1784656991.4100,505,3036
1784656991.4128,505,3023
1784656991.4151,501,3021
1784656991.4173,505,3011
1784656991.4197,502,3033
1784656991.4221,502,3021
1784656991.4243,500,3041
1784656991.4266,509,3014
1784656991.4288,506,3051
1784656991.4311,505,3016
1784656991.4333,505,3025
1784656991.4390,509,3042
1784656991.4413,506,3055
1784656991.4437,506,3030
1784656991.4460,506,3036
1784656991.4484,509,3026
1784656991.4507,510,3035
1784656991.4530,511,3042
1784656991.4552,510,3006
1784656991.4575,506,2986
1784656991.4599,509,3027
1784656991.4630,509,3037
1784656991.4654,503,3039
1784656991.4677,506,3039
1784656991.4699,506,3022
1784656991.4721,503,3012
1784656991.4744,507,3033
1784656991.4768,508,3028
1784656991.4790,502,3025
1784656991.4850,511,3067
1784656991.4873,511,3059
1784656991.4897,511,3062
1784656991.4918,510,3062
1784656991.4939,511,3029
1784656991.4962,511,3030
1784656991.4990,509,3027
1784656991.5013,510,3052
1784656991.5036,513,3059
1784656991.5059,514,3092
1784656991.5081,515,3099
1784656991.5107,516,3074
1784656991.5133,515,3092
1784656991.5156,514,3052
1784656991.5178,513,3056
1784656991.5201,511,3053
1784656991.5223,512,3057
1784656991.5246,512,3027
1784656991.5269,511,3052
1784656991.5335,509,3034
1784656991.5363,510,3035
1784656991.5390,509,3027
1784656991.5415,506,3028
1784656991.5442,504,3027
1784656991.5468,504,3035
1784656991.5493,508,3046
1784656991.5522,507,3034
1784656991.5554,505,3033
1784656991.5581,507,3036
1784656991.5609,508,3043
1784656991.5637,506,3032
1784656991.5664,505,3021
1784656991.5691,500,3026
1784656991.5717,505,3029
1784656991.5745,501,3033
1784656991.5770,506,3058
1784656991.5797,502,3015
1784656991.5822,508,3035
1784656991.5847,501,3019
1784656991.5872,503,3035
1784656991.5898,501,3018
1784656991.5959,502,3028
1784656991.5985,501,3029
1784656991.6010,505,3078
1784656991.6033,503,3011
1784656991.6058,505,3012
1784656991.6087,503,3001
1784656991.6117,506,3023
1784656991.6147,510,3045
1784656991.6174,510,3066
1784656991.6201,510,3063
1784656991.6231,510,3048
1784656991.6257,510,3038
1784656991.6282,509,3040
1784656991.6309,511,3045
1784656991.6334,510,3041
1784656991.6361,509,3028
1784656991.6422,510,3054
1784656991.6441,510,3027
1784656991.6461,507,3050
1784656991.6483,506,3009
1784656991.6504,506,3028
1784656991.6527,505,3019
1784656991.6550,506,3021
1784656991.6574,501,3017
1784656991.6598,501,3020
1784656991.6626,503,3038
1784656991.6649,496,3027
1784656991.6671,508,3030
1784656991.6694,511,3046
1784656991.6717,512,3055
1784656991.6740,511,3051
1784656991.6763,511,3044
1784656991.6787,508,3039
1784656991.6809,508,3036
1784656991.6831,505,3033
1784656991.6865,508,3033
1784656991.6917,505,3028
1784656991.6945,506,3032
1784656991.6971,502,3059
1784656991.6996,498,3023
1784656991.7023,499,3018
1784656991.7054,507,3027
1784656991.7089,503,3059
1784656991.7117,508,3061
1784656991.7155,510,3057
1784656991.7195,509,3052
1784656991.7232,509,3010
1784656991.7259,505,3027
1784656991.7286,501,3032
1784656991.7312,503,3030
1784656991.7371,506,3050
1784656991.7397,505,3042
1784656991.7425,506,3038
1784656991.7451,505,3037
1784656991.7477,514,3029
1784656991.7505,515,3019
1784656991.7539,511,3028
1784656991.7572,507,3024
1784656991.7605,502,3027
1784656991.7642,508,3032
1784656991.7680,505,3026
1784656991.7716,512,3072
1784656991.7742,513,3098
1784656991.7766,513,3068
1784656991.7792,515,3068
1784656991.7852,514,3061
1784656991.7873,512,3060
1784656991.7894,510,3079
1784656991.7914,509,3051
1784656991.7937,509,3046
1784656991.7961,510,3045
1784656991.7983,509,3027
1784656991.8006,507,3024
1784656991.8029,507,3047
1784656991.8051,518,3117
1784656991.8075,517,3106
1784656991.8100,516,3098
1784656991.8129,516,3107
1784656991.8152,515,3086
1784656991.8175,514,3071
1784656991.8197,514,3085
1784656991.8219,512,3063
1784656991.8242,511,3024
1784656991.8265,512,3064
1784656991.8327,511,3103
1784656991.8355,516,3107
1784656991.8382,517,3103
1784656991.8407,517,3089
1784656991.8434,519,3080
1784656991.8469,519,3102
1784656991.8499,522,3101
1784656991.8532,520,3091
1784656991.8558,519,3102
1784656991.8584,516,3095
1784656991.8614,522,3116
1784656991.8650,526,3119
1784656991.8686,526,3121
1784656991.8723,527,3106
1784656991.8776,525,3113
1784656991.8814,523,3103
1784656991.8836,520,3098
1784656991.8856,518,3106
1784656991.8876,517,3101
1784656991.8899,516,3075
1784656991.8923,515,3067
1784656991.8950,512,3067
1784656991.8973,512,3057
1784656991.8997,513,3075
1784656991.9019,513,3077
1784656991.9042,520,3064
1784656991.9065,516,3059
1784656991.9090,513,3030
1784656991.9113,513,3049
1784656991.9136,522,3125
1784656991.9158,519,3126
1784656991.9181,542,3196
1784656991.9205,541,3197
1784656991.9266,534,3192
1784656991.9293,539,3181
1784656991.9320,539,3170
1784656991.9346,538,3168
1784656991.9373,537,3153
1784656991.9402,534,3140
1784656991.9431,543,3204
1784656991.9463,553,3272
1784656991.9497,552,3272
1784656991.9534,558,3267
1784656991.9564,558,3266
1784656991.9593,559,3262
1784656991.9617,560,3268
1784656991.9642,559,3245
1784656991.9667,557,3192
1784656991.9693,555,3223
1784656991.9752,554,3222
1784656991.9772,552,3214
1784656991.9793,549,3205
1784656991.9815,549,3206
1784656991.9838,551,3193
1784656991.9862,546,3186
1784656991.9885,550,3209
1784656991.9907,548,3220
1784656991.9931,544,3195
1784656991.9956,542,3181
1784656991.9979,542,3175
1784656992.0001,540,3173
1784656992.0028,541,3156
1784656992.0050,534,3154
1784656992.0073,536,3149
1784656992.0096,534,3144
1784656992.0120,536,3139
1784656992.0143,525,3125
1784656992.0189,540,3204
1784656992.0230,541,3206
1784656992.0259,550,3194
1784656992.0284,558,3240
1784656992.0310,556,3227
1784656992.0339,557,3218
1784656992.0361,553,3211
1784656992.0382,549,3206
1784656992.0402,548,3213
1784656992.0424,544,3192
1784656992.0454,552,3177
1784656992.0482,604,3485
1784656992.0510,607,3499
1784656992.0536,609,3480
1784656992.0561,607,3470
1784656992.0587,608,3462
1784656992.0615,607,3445
1784656992.0674,605,3439
1784656992.0709,604,3427
1784656992.0732,604,3423
1784656992.0753,601,3410
1784656992.0774,601,3401
1784656992.0797,597,3401
1784656992.0820,593,3384
1784656992.0843,590,3366
1784656992.0866,589,3383
1784656992.0888,606,3486
1784656992.0911,606,3454
1784656992.0939,606,3446
1784656992.0982,607,3431
1784656992.1025,605,3423
1784656992.1066,600,3406
1784656992.1108,596,3410
1784656992.1169,593,3398
1784656992.1192,599,3382
1784656992.1214,597,3380
1784656992.1235,590,3373
1784656992.1259,590,3370
1784656992.1282,590,3354
1784656992.1305,586,3344
1784656992.1327,581,3337
1784656992.1349,581,3328
1784656992.1371,577,3319
1784656992.1393,577,3325
1784656992.1416,577,3307
1784656992.1444,576,3295
1784656992.1468,575,3287
1784656992.1491,572,3280
1784656992.1513,566,3267
1784656992.1536,562,3262
1784656992.1558,573,3247
1784656992.1581,562,3288
1784656992.1642,559,3230
1784656992.1666,558,3234
1784656992.1687,559,3232
1784656992.1709,573,3314
1784656992.1733,573,3295
1784656992.1759,566,3295
1784656992.1786,566,3291
1784656992.1809,577,3354
1784656992.1832,576,3344
1784656992.1856,577,3334
1784656992.1878,582,3300
1784656992.1904,579,3308
1784656992.1928,576,3295
1784656992.1950,571,3287
1784656992.1973,569,3320
1784656992.1997,565,3274
1784656992.2019,566,3274
1784656992.2043,565,3257
1784656992.2107,563,3249
1784656992.2136,559,3235
1784656992.2162,560,3229
1784656992.2187,557,3227
1784656992.2214,555,3229
1784656992.2242,553,3226
1784656992.2271,554,3201
1784656992.2305,552,3201
1784656992.2340,549,3187
1784656992.2371,547,3181
1784656992.2404,543,3190
1784656992.2431,542,3167
1784656992.2456,538,3157
1784656992.2482,537,3160
1784656992.2507,530,3168
1784656992.2545,542,3190
1784656992.2604,539,3180
1784656992.2628,541,3174
1784656992.2654,540,3149
1784656992.2678,537,3156
1784656992.2705,530,3157
1784656992.2732,532,3145
1784656992.2761,532,3141
1784656992.2789,529,3135
1784656992.2813,531,3108
1784656992.2839,531,3117
1784656992.2863,528,3105
1784656992.2886,526,3101
1784656992.2907,523,3125
1784656992.2928,519,3092
1784656992.2950,517,3086
1784656992.2973,517,3075
1784656992.2996,515,3057
1784656992.3019,515,3058
1784656992.3042,519,3073
1784656992.3065,516,3062
1784656992.3087,509,3060
1784656992.3110,510,3063
1784656992.3132,511,3036
1784656992.3155,531,3207
1784656992.3218,534,3190
1784656992.3243,538,3190
1784656992.3268,540,3182
1784656992.3293,538,3170
1784656992.3320,539,3173
1784656992.3348,538,3165
1784656992.3374,535,3166
1784656992.3398,532,3144
1784656992.3424,535,3135
1784656992.3454,531,3126
1784656992.3479,534,3176
1784656992.3502,535,3119
1784656992.3525,528,3111
1784656992.3547,526,3098
1784656992.3570,522,3095
1784656992.3592,524,3093
1784656992.3617,518,3081
1784656992.3682,519,3079
1784656992.3709,517,3065
1784656992.3736,513,3064
1784656992.3761,512,3050
1784656992.3790,511,3022
1784656992.3813,507,3035
1784656992.3836,513,3049
1784656992.3859,512,3043
1784656992.3881,511,3039
1784656992.3904,510,3031
1784656992.3930,511,3051
1784656992.3958,511,3050
1784656992.3988,509,3027
1784656992.4026,510,3034
1784656992.4068,506,3023
1784656992.4138,505,3025
1784656992.4180,504,3026
1784656992.4201,508,3029
1784656992.4221,508,3036
1784656992.4241,508,3044
1784656992.4268,507,3055
1784656992.4290,501,3028
1784656992.4310,505,3046
1784656992.4332,508,3042
1784656992.4353,505,3030
1784656992.4374,510,3058
1784656992.4395,507,3052
1784656992.4416,511,3038
1784656992.4443,509,3033
1784656992.4465,506,3030
1784656992.4486,508,3045
1784656992.4508,513,3035
1784656992.4529,512,3049
1784656992.4550,509,3019
1784656992.4571,511,3060
1784656992.4593,511,3028
1784656992.4614,509,3029
1784656992.4635,503,3016
1784656992.4657,505,3016
1784656992.4679,500,3023
1784656992.4699,498,3004
1784656992.4721,498,3010
1784656992.4782,506,3043
1784656992.4804,510,3047
1784656992.4826,512,3055
1784656992.4846,512,3070
1784656992.4867,515,3063
1784656992.4889,511,3084
1784656992.4910,511,3044
1784656992.4933,510,3054
1784656992.4958,511,3049
1784656992.4979,512,3034
1784656992.5000,512,3057
1784656992.5021,511,3044
1784656992.5042,509,3034
1784656992.5063,506,3030
1784656992.5084,510,3038
1784656992.5105,511,3051
1784656992.5126,510,3042
1784656992.5148,509,3041
1784656992.5169,508,3040
1784656992.5191,508,3030
1784656992.5257,498,3025
1784656992.5285,501,3026
1784656992.5312,498,3030
1784656992.5337,498,3006
1784656992.5364,497,2991
1784656992.5394,506,3010
1784656992.5425,507,3039
1784656992.5453,511,3046
1784656992.5489,514,3074
1784656992.5525,513,3090
1784656992.5559,518,3099
1784656992.5587,514,3137
1784656992.5615,514,3092
1784656992.5642,514,3086
1784656992.5673,512,3068
1784656992.5732,513,3058
1784656992.5754,512,3058
1784656992.5775,513,3040
1784656992.5796,512,3036
1784656992.5818,509,3036
1784656992.5841,506,3024
1784656992.5865,505,3007
1784656992.5887,504,3019
1784656992.5909,500,3004
1784656992.5935,501,3015
1784656992.5959,503,3014
1784656992.5982,501,3037
1784656992.6006,498,3023
1784656992.6029,500,3020
1784656992.6052,498,3016
1784656992.6076,501,3051
1784656992.6099,506,3031
1784656992.6122,504,3025
1784656992.6171,504,3018
1784656992.6213,503,3034
1784656992.6240,510,3063
1784656992.6263,511,3050
1784656992.6286,510,3050
1784656992.6313,510,3054
1784656992.6349,510,3039
1784656992.6384,510,3043
1784656992.6419,503,3025
1784656992.6451,505,3016
1784656992.6485,501,3011
1784656992.6523,499,2993
1784656992.6559,496,2996
1784656992.6587,498,3015
1784656992.6611,512,3083
1784656992.6676,516,3101
1784656992.6696,514,3084
1784656992.6716,514,3082
1784656992.6736,512,3081
1784656992.6758,515,3061
1784656992.6781,510,3068
1784656992.6803,511,3050
1784656992.6824,512,3054
1784656992.6845,513,3069
1784656992.6865,517,3101
1784656992.6887,521,3114
1784656992.6909,520,3125
1784656992.6935,518,3095
1784656992.6959,515,3096
1784656992.6980,515,3087
1784656992.7001,515,3042
1784656992.7023,514,3063
1784656992.7044,514,3054
1784656992.7065,511,3040
1784656992.7087,503,3041
1784656992.7152,511,3035
1784656992.7177,512,3019
1784656992.7202,511,3041
1784656992.7226,508,3036
1784656992.7252,509,3062
1784656992.7281,509,3032
1784656992.7311,508,3022
1784656992.7340,508,3008
1784656992.7367,507,3016
1784656992.7392,503,3026
1784656992.7417,502,3035
1784656992.7442,501,3026
1784656992.7469,502,3009
1784656992.7496,507,3018
1784656992.7523,503,3019
1784656992.7551,505,3038
1784656992.7612,502,3028
1784656992.7631,510,3076
1784656992.7651,510,3074
1784656992.7672,510,3056
1784656992.7694,515,3087
1784656992.7717,515,3084
1784656992.7740,517,3084
1784656992.7767,516,3061
1784656992.7793,513,3060
1784656992.7816,512,3056
1784656992.7838,510,3056
1784656992.7860,512,3038
1784656992.7883,511,3033
1784656992.7906,509,3024
1784656992.7929,509,3032
1784656992.7951,506,3029
1784656992.7974,503,3020
1784656992.7997,502,3012
1784656992.8019,502,3030
1784656992.8080,500,3041
1784656992.8108,499,3011
1784656992.8135,500,3023
1784656992.8160,505,3022
1784656992.8185,504,3022
1784656992.8213,503,3028
1784656992.8244,507,3037
1784656992.8273,508,3043
1784656992.8309,506,3039
1784656992.8344,505,3026
1784656992.8379,506,3015
1784656992.8408,511,3040
1784656992.8434,511,3042
1784656992.8462,510,3031
1784656992.8490,509,3024
1784656992.8553,501,3024
1784656992.8574,505,3017
1784656992.8596,509,3031
1784656992.8622,508,3037
1784656992.8650,511,3053
1784656992.8674,518,3111
1784656992.8702,526,3141
1784656992.8735,534,3183
1784656992.8763,531,3138
1784656992.8802,533,3147
1784656992.8839,527,3144
1784656992.8875,527,3134
1784656992.8907,533,3182
1784656992.8934,538,3157
1784656992.8961,537,3154
1784656992.9026,533,3147
1784656992.9046,533,3120
1784656992.9067,532,3131
1784656992.9088,527,3128
1784656992.9110,527,3075
1784656992.9137,526,3110
1784656992.9160,526,3099
1784656992.9183,525,3096
1784656992.9206,541,3210
1784656992.9228,546,3235
1784656992.9252,546,3226
1784656992.9282,551,3211
1784656992.9305,547,3208
1784656992.9327,548,3200
1784656992.9349,549,3195
1784656992.9371,546,3186
1784656992.9395,549,3181
1784656992.9418,544,3182
1784656992.9440,533,3151
1784656992.9506,531,3155
1784656992.9529,532,3148
1784656992.9552,533,3141
1784656992.9576,529,3127
1784656992.9601,533,3128
1784656992.9626,530,3120
1784656992.9649,529,3086
1784656992.9671,525,3098
1784656992.9693,524,3112
1784656992.9716,522,3092
1784656992.9738,518,3105
1784656992.9763,519,3074
1784656992.9787,517,3072
1784656992.9810,520,3059
1784656992.9833,519,3076
1784656992.9856,514,3051
1784656992.9878,511,3032
1784656992.9900,511,3046
1784656992.9962,510,3027
1784656992.9990,508,3028
1784656993.0019,509,3047
1784656993.0044,511,3045
1784656993.0070,511,3040
1784656993.0099,508,3042
1784656993.0135,508,3035
1784656993.0165,503,3045
1784656993.0197,502,3039
1784656993.0224,507,3036
1784656993.0250,509,3044
1784656993.0280,510,3041
1784656993.0318,510,3035
1784656993.0351,507,2998
1784656993.0388,508,3026
1784656993.0476,504,3028
1784656993.0496,502,3029
1784656993.0516,501,3021
1784656993.0537,507,3041
1784656993.0562,513,3046
1784656993.0587,504,3041
1784656993.0612,509,3045
1784656993.0638,508,3034
1784656993.0661,506,3032
1784656993.0682,501,3035
1784656993.0705,505,3027
1784656993.0731,507,3036
1784656993.0760,510,3063
1784656993.0791,511,3049
1784656993.0832,511,3059
1784656993.0866,510,3049
1784656993.0892,507,3037
1784656993.0918,504,3034
1784656993.0943,504,3031
1784656993.0969,503,3022
1784656993.0994,502,3020
1784656993.1019,514,3037
1784656993.1079,512,3020
1784656993.1100,512,3018
1784656993.1120,509,3021
1784656993.1141,508,3024
1784656993.1164,507,3027
1784656993.1188,504,3020
1784656993.1212,499,3031
1784656993.1235,509,3040
1784656993.1262,506,3036
1784656993.1287,506,3028
1784656993.1310,503,3033
1784656993.1333,506,3030
1784656993.1359,508,3036
1784656993.1382,505,3040
1784656993.1406,510,3019
1784656993.1428,510,3054
1784656993.1451,513,3061
1784656993.1474,511,3056
1784656993.1509,511,3040
1784656993.1560,511,3052
1784656993.1583,509,3046
1784656993.1606,506,3043
1784656993.1629,506,3031
1784656993.1653,505,3019
1784656993.1678,505,3015
1784656993.1702,506,3031
1784656993.1726,501,3033
1784656993.1750,506,3033
1784656993.1777,507,3053
1784656993.1799,507,2978
1784656993.1823,507,3050
1784656993.1846,509,3034
1784656993.1868,508,3046
1784656993.1891,507,3039
1784656993.1913,502,3032
1784656993.1936,503,3024
1784656993.1959,506,3027
1784656993.2022,508,3046
1784656993.2051,510,3051
1784656993.2078,511,3070
1784656993.2104,515,3084
1784656993.2130,513,3077
1784656993.2161,515,3069
1784656993.2193,515,3064
1784656993.2228,511,3059
1784656993.2259,513,3058
1784656993.2296,512,3044
1784656993.2334,511,3060
1784656993.2366,510,3047
1784656993.2394,510,3029
1784656993.2419,508,3018
1784656993.2468,502,3014
1784656993.2503,506,3028
1784656993.2524,509,3052
1784656993.2544,510,3047
1784656993.2566,509,3039
1784656993.2589,508,3029
1784656993.2614,511,3038
1784656993.2646,510,3036
1784656993.2689,511,3032
1784656993.2733,507,3039
1784656993.2768,508,3024
1784656993.2810,503,3021
1784656993.2853,505,3020
1784656993.2897,499,2991
1784656993.2966,510,3045
1784656993.2993,509,3037
1784656993.3020,510,3038
1784656993.3045,506,3035
1784656993.3072,502,3032
1784656993.3108,503,3025
1784656993.3141,503,3030
1784656993.3176,503,3013
1784656993.3208,501,3008
1784656993.3241,499,3004
1784656993.3269,501,2996
1784656993.3306,502,3026
1784656993.3341,514,3096
1784656993.3378,515,3100
1784656993.3442,515,3099
1784656993.3470,515,3082
1784656993.3499,514,3094
1784656993.3525,514,3071
1784656993.3551,513,3038
1784656993.3580,513,3050
1784656993.3610,508,3074
1784656993.3642,512,3036
1784656993.3678,510,3040
1784656993.3712,509,3007
1784656993.3738,509,3023
1784656993.3764,507,3023
1784656993.3790,510,3008
1784656993.3814,511,3050
1784656993.3839,511,3033
1784656993.3865,512,3024
1784656993.3891,503,3031
1784656993.3917,500,3011
1784656993.3942,502,2995
1784656993.3970,507,3028
1784656993.3996,507,3022
1784656993.4063,511,3020
1784656993.4090,508,3003
1784656993.4119,508,3018
1784656993.4144,503,3010
1784656993.4170,507,3022
1784656993.4206,511,3083
1784656993.4239,511,3067
1784656993.4268,510,3074
1784656993.4300,513,3069
1784656993.4334,512,3075
1784656993.4371,511,3068
1784656993.4397,512,3068
1784656993.4422,513,3061
1784656993.4448,512,3064
1784656993.4474,511,3051
1784656993.4536,510,3049
1784656993.4563,508,3037
1784656993.4590,509,3038
1784656993.4616,505,3034
1784656993.4642,505,3042
1784656993.4672,497,3019
1784656993.4700,495,2996
1784656993.4733,495,2997
1784656993.4762,492,2955
1784656993.4800,508,3005
1784656993.4834,511,3058
1784656993.4870,511,3050
1784656993.4897,513,3045
1784656993.4922,509,3076
1784656993.4946,508,3042
1784656993.5007,506,3011
1784656993.5035,505,3032
1784656993.5063,505,3021
1784656993.5089,509,3047
1784656993.5116,507,3037
1784656993.5151,507,3030
1784656993.5186,507,3039
1784656993.5214,506,3031
1784656993.5250,504,3023
1784656993.5278,502,3015
1784656993.5309,505,3027
1784656993.5343,504,3030
1784656993.5378,505,3016
1784656993.5406,502,3031
1784656993.5431,502,3038
1784656993.5494,505,3034
1784656993.5521,507,3055
1784656993.5549,506,3034
1784656993.5573,501,3040
1784656993.5600,505,3024
1784656993.5631,506,3026
1784656993.5664,502,3025
1784656993.5699,509,3051
1784656993.5726,505,3050
1784656993.5754,499,3001
1784656993.5783,499,3009
1784656993.5819,508,3044
1784656993.5859,513,3082
1784656993.5892,514,3041
1784656993.5916,513,3077
1784656993.5975,513,3068
1784656993.5996,512,3017
1784656993.6016,512,3057
1784656993.6036,511,3057
1784656993.6060,515,3044
1784656993.6089,504,3033
1784656993.6115,511,3053
1784656993.6137,510,3051
1784656993.6159,509,3035
1784656993.6181,506,3020
1784656993.6204,502,3014
1784656993.6228,501,3020
1784656993.6251,500,3010
1784656993.6275,502,3011
1784656993.6297,507,3024
1784656993.6319,506,3018
1784656993.6342,501,3021
1784656993.6366,501,3008
1784656993.6428,499,3002
1784656993.6452,499,3010
1784656993.6475,500,3010
1784656993.6498,502,3037
1784656993.6521,505,3023
1784656993.6547,507,3004
1784656993.6583,501,3032
1784656993.6618,501,3016
1784656993.6662,504,3012
1784656993.6705,500,3026
1784656993.6749,500,3022
1784656993.6792,498,3010
1784656993.6836,503,3014
1784656993.6902,509,3043
1784656993.6929,512,3067
1784656993.6956,522,3062
1784656993.6981,518,3052
1784656993.7007,514,3045
1784656993.7042,512,3045
1784656993.7074,510,3027
1784656993.7105,509,3031
1784656993.7143,507,3023
1784656993.7178,501,3012
1784656993.7208,500,3011
1784656993.7242,501,3020
1784656993.7269,506,3040
1784656993.7294,507,3049
1784656993.7321,509,3062
1784656993.7380,510,3063
1784656993.7400,510,3069
1784656993.7423,512,3052
1784656993.7444,512,3057
1784656993.7464,511,3046
1784656993.7489,510,3045
1784656993.7512,510,3035
1784656993.7535,506,3029
1784656993.7557,503,3028
1784656993.7581,502,3027
1784656993.7607,511,3063
1784656993.7630,511,3062
1784656993.7654,509,3051
1784656993.7677,510,3059
1784656993.7699,507,3047
1784656993.7721,507,3040
1784656993.7743,504,3035
1784656993.7768,504,3025
1784656993.7790,506,3015
1784656993.7850,503,3024
1784656993.7873,501,3024
1784656993.7896,505,3055
1784656993.7919,504,3039
1784656993.7943,500,3028
1784656993.7970,499,3019
1784656993.7993,500,3008
1784656993.8016,505,3026
1784656993.8039,510,3059
1784656993.8062,510,3040
1784656993.8090,505,3023
1784656993.8116,508,3039
1784656993.8139,508,3040
1784656993.8162,500,3034
1784656993.8185,502,3041
1784656993.8208,505,3025
1784656993.8230,502,3041
1784656993.8254,506,3026
1784656993.8316,505,3045
1784656993.8343,506,3048
1784656993.8370,506,3050
1784656993.8396,502,3031
1784656993.8424,502,3026
1784656993.8454,506,3047
1784656993.8489,509,3038
1784656993.8521,506,3027
1784656993.8552,506,3037
1784656993.8581,504,3024
1784656993.8616,504,3035
1784656993.8655,500,3029
1784656993.8688,502,3021
1784656993.8724,504,3040
1784656993.8788,500,3036
1784656993.8810,502,3033
1784656993.8830,502,3030
1784656993.8851,505,3023
1784656993.8872,506,3040
1784656993.8896,506,3041
1784656993.8927,501,3029
1784656993.8950,501,3018
1784656993.8973,506,3028
1784656993.8996,505,3028
1784656993.9019,502,3031
1784656993.9042,499,3009
1784656993.9067,505,3036
1784656993.9089,506,3036
1784656993.9111,503,3030
1784656993.9134,511,3009
1784656993.9157,511,3034
1784656993.9180,511,3061
1784656993.9202,510,3065
1784656993.9269,508,3037
1784656993.9297,502,3029
1784656993.9325,506,3037
1784656993.9351,504,3037
1784656993.9379,506,3046
1784656993.9410,510,3060
1784656993.9440,511,3076
1784656993.9473,510,3078
1784656993.9504,509,3040
1784656993.9531,504,3037
1784656993.9562,507,3032
1784656993.9591,506,3020
1784656993.9617,506,3027
1784656993.9643,504,3022
1784656993.9669,508,3036
1784656993.9730,506,3027
1784656993.9751,503,3023
1784656993.9772,505,3040
1784656993.9792,508,3036
1784656993.9814,507,3050
1784656993.9839,503,3038
1784656993.9865,506,2994
1784656993.9887,503,3021
1784656993.9912,506,3015
1784656993.9938,505,3011
1784656993.9960,500,3009
1784656993.9983,504,3046
1784656994.0006,510,3054
1784656994.0029,510,3063
1784656994.0051,509,3073
1784656994.0075,510,3043
1784656994.0097,512,3080
1784656994.0120,512,3048
1784656994.0143,511,3036
1784656994.0217,508,3026
1784656994.0239,505,3038
1784656994.0258,502,3024
1784656994.0277,506,3027
1784656994.0298,505,3005
1784656994.0321,502,3016
1784656994.0342,506,3019
1784656994.0363,497,3024
1784656994.0385,497,3019
1784656994.0406,502,3039
1784656994.0430,507,3045
1784656994.0452,506,3046
1784656994.0473,505,2991
1784656994.0495,503,3031
1784656994.0517,511,3039
1784656994.0538,509,3041
1784656994.0559,508,3031
1784656994.0580,506,3021
1784656994.0601,509,3042
1784656994.0623,505,3035
1784656994.0815,504,3028
1784656994.0837,501,2994
1784656994.0857,508,3032
1784656994.0877,507,3029
1784656994.0898,503,3025
1784656994.0920,500,3039
1784656994.0942,506,3028
1784656994.0964,505,3047
1784656994.0985,500,3034
1784656994.1006,501,3029
1784656994.1027,504,3030
1784656994.1048,509,3037
1784656994.1069,503,3023
1784656994.1098,510,3027
1784656994.1120,506,3024
1784656994.1140,505,3025
1784656994.1162,503,3032
1784656994.1182,503,3030
1784656994.1204,505,3045
1784656994.1226,506,3073
1784656994.1249,506,3028
1784656994.1312,504,3031
1784656994.1339,504,3025
1784656994.1367,500,3013
1784656994.1392,504,3021
1784656994.1420,499,3012
1784656994.1455,501,2999
1784656994.1483,504,3023
1784656994.1514,510,3054
1784656994.1543,511,3053
1784656994.1570,510,3053
1784656994.1597,511,3051
1784656994.1634,509,3045
1784656994.1666,509,3065
1784656994.1696,503,3030
1784656994.1727,507,3030
1784656994.1788,508,3033
1784656994.1808,508,3034
1784656994.1831,508,3051
1784656994.1852,510,3050
1784656994.1877,511,3064
1784656994.1901,507,3046
1784656994.1928,503,3047
1784656994.1951,509,2983
1784656994.1974,509,3041
1784656994.1997,506,3040
1784656994.2019,507,3033
1784656994.2042,505,3024
1784656994.2066,500,3021
1784656994.2090,498,3013
1784656994.2112,499,3027
1784656994.2135,500,3023
1784656994.2157,502,3028
1784656994.2179,496,3041
1784656994.2202,498,3031
1784656994.2267,498,3028
1784656994.2295,502,3047
1784656994.2318,500,3005
1784656994.2341,501,3008
1784656994.2369,501,3033
1784656994.2404,510,3038
1784656994.2435,510,3052
1784656994.2470,509,3044
1784656994.2510,508,3043
1784656994.2541,506,3033
1784656994.2566,502,3032
1784656994.2591,506,3027
1784656994.2617,502,3019
1784656994.2642,507,3028
1784656994.2667,507,3031
1784656994.2734,506,3029
1784656994.2756,501,3021
1784656994.2776,503,3006
1784656994.2797,502,3026
1784656994.2819,504,3043
1784656994.2847,500,3024
1784656994.2884,508,3048
1784656994.2914,510,3054
1784656994.2941,509,3040
1784656994.2978,509,3045
1784656994.3015,506,3039
1784656994.3051,504,3030
1784656994.3082,505,3018
1784656994.3109,510,3052
1784656994.3136,511,3060
1784656994.3199,511,3057
1784656994.3220,512,3061
1784656994.3241,511,3051
1784656994.3262,512,3045
1784656994.3283,510,3053
1784656994.3308,508,3029
1784656994.3331,505,3026
1784656994.3354,503,3016
1784656994.3378,502,3048
1784656994.3400,504,3025
1784656994.3427,507,3032
1784656994.3450,512,3016
1784656994.3473,510,3022
1784656994.3496,506,3024
1784656994.3518,502,3048
1784656994.3542,506,3021
1784656994.3565,509,3041
1784656994.3587,510,3036
1784656994.3610,511,3057
1784656994.3672,509,3041
1784656994.3700,504,3048
1784656994.3729,506,3031
1784656994.3754,502,3023
1784656994.3781,498,3049
1784656994.3811,499,3017
1784656994.3844,508,3038
1784656994.3879,511,3053
1784656994.3911,509,3048
1784656994.3940,507,3036
1784656994.3976,503,3030
1784656994.4014,503,3027
1784656994.4049,512,3047
1784656994.4075,510,3010
1784656994.4102,507,3016
1784656994.4162,509,3053
1784656994.4191,510,3038
1784656994.4217,507,3051
1784656994.4242,508,3053
1784656994.4275,507,3057
1784656994.4308,506,3050
1784656994.4340,505,3022
1784656994.4370,502,3035
1784656994.4397,507,3046
1784656994.4431,509,3031
1784656994.4462,504,3033
1784656994.4496,500,3025
1784656994.4535,501,3023
1784656994.4563,502,3027
1784656994.4630,502,3030
1784656994.4658,502,3021
1784656994.4685,505,3010
1784656994.4710,500,3020
1784656994.4738,502,3030
1784656994.4765,509,3034
1784656994.4795,506,3040
1784656994.4829,506,3046
1784656994.4858,502,3027
1784656994.4886,502,3030
1784656994.4913,506,3038
1784656994.4947,508,3037
1784656994.4987,510,3036
1784656994.5027,509,3029
1784656994.5093,510,3033
1784656994.5120,506,3055
1784656994.5148,502,3043
1784656994.5173,499,3027
1784656994.5199,500,3023
1784656994.5228,508,3044
1784656994.5257,508,3033
1784656994.5292,507,3033
1784656994.5326,508,3034
1784656994.5358,505,3029
1784656994.5387,507,3029
1784656994.5412,502,3025
1784656994.5440,501,3017
1784656994.5468,506,3024
1784656994.5496,505,3021
1784656994.5525,502,3016
1784656994.5584,508,3009
1784656994.5604,507,3033
1784656994.5626,507,3040
1784656994.5647,507,3048
1784656994.5671,503,3043
1784656994.5694,506,3028
1784656994.5717,505,3037
1784656994.5742,508,3039
1784656994.5768,502,3038
1784656994.5791,503,3016
1784656994.5815,505,3054
1784656994.5838,502,3031
1784656994.5861,501,3050
1784656994.5885,503,2961
1784656994.5907,507,3021
1784656994.5929,507,3022
1784656994.5952,507,3019
1784656994.5975,507,3030
1784656994.6036,509,3052
1784656994.6060,510,3044
1784656994.6084,509,3045
1784656994.6107,507,3053
1784656994.6129,506,3035
1784656994.6155,505,3042
1784656994.6178,502,3022
1784656994.6201,501,3015
1784656994.6223,500,3025
1784656994.6248,509,3032
1784656994.6273,507,3048
1784656994.6296,505,3032
1784656994.6319,508,3060
1784656994.6341,506,3040
1784656994.6364,509,3039
1784656994.6387,509,3031
1784656994.6410,503,3028
1784656994.6432,504,3027
1784656994.6456,501,3019
1784656994.6516,500,3018
1784656994.6539,501,3010
1784656994.6563,504,3020
1784656994.6586,509,3041
1784656994.6610,508,3039
1784656994.6635,507,3033
1784656994.6658,505,3040
1784656994.6680,506,3029
1784656994.6703,501,3023
1784656994.6726,502,3025
1784656994.6752,501,3017
1784656994.6777,500,3014
1784656994.6800,499,3004
1784656994.6823,501,3023
1784656994.6846,506,3051
1784656994.6869,509,3063
1784656994.6891,512,3057
1784656994.6915,511,3067
1784656994.6976,511,3047
1784656994.7003,507,3036
1784656994.7031,510,3030
1784656994.7056,510,3032
1784656994.7083,505,3019
1784656994.7111,508,3060
1784656994.7144,502,3034
1784656994.7177,502,3026
1784656994.7208,510,3034
1784656994.7238,510,3049
1784656994.7268,512,3051
1784656994.7305,512,3041
1784656994.7340,510,3041
1784656994.7373,511,3040
1784656994.7403,510,3041
1784656994.7467,506,3037
1784656994.7494,508,3005
1784656994.7521,508,3042
1784656994.7547,509,3069
1784656994.7574,513,3092
1784656994.7605,513,3086
1784656994.7635,512,3082
1784656994.7664,511,3081
1784656994.7696,512,3027
1784656994.7724,510,3087
1784656994.7754,508,3057
1784656994.7790,511,3050
1784656994.7826,511,3059
1784656994.7863,510,3030
1784656994.7930,507,3028
1784656994.7952,507,3040
1784656994.7972,506,3033
1784656994.7992,500,3025
1784656994.8013,500,3024
1784656994.8037,499,3016
1784656994.8060,501,3024
1784656994.8087,505,3015
1784656994.8110,500,3001
1784656994.8133,498,3020
1784656994.8156,504,3013
1784656994.8178,499,3006
1784656994.8200,510,3025
1784656994.8223,511,3063
1784656994.8246,511,3047
1784656994.8269,511,3032
1784656994.8291,510,3038
1784656994.8315,508,3030
1784656994.8338,507,3037
1784656994.8398,505,3043
1784656994.8426,509,3045
1784656994.8454,511,3051
1784656994.8479,511,3045
1784656994.8506,511,3052
1784656994.8538,508,3033
1784656994.8562,507,3033
1784656994.8589,501,3026
1784656994.8609,501,3032
1784656994.8629,499,3032
1784656994.8650,500,3010
1784656994.8673,502,3031
1784656994.8696,510,3033
1784656994.8719,509,3042
1784656994.8742,507,3032
1784656994.8766,505,3029
1784656994.8788,504,3029
1784656994.8811,500,3021
1784656994.8872,506,3020
1784656994.8900,510,3039
1784656994.8927,511,3082
1784656994.8954,507,3027
1784656994.8980,503,3020
1784656994.9012,508,3017
1784656994.9042,508,2995
1784656994.9074,509,3017
1784656994.9105,508,3018
1784656994.9141,504,3016
1784656994.9176,511,3049
1784656994.9212,512,3067
1784656994.9242,511,3058
1784656994.9270,511,3001
1784656994.9297,507,3046
1784656994.9360,510,3044
1784656994.9380,510,3043
1784656994.9402,507,3071
1784656994.9423,509,3043
1784656994.9447,504,3024
1784656994.9470,508,3027
1784656994.9494,507,3026
1784656994.9517,507,3008
1784656994.9539,506,3028
1784656994.9563,509,3044
1784656994.9595,509,3045
1784656994.9617,512,3052
1784656994.9640,511,3051
1784656994.9663,510,3043
1784656994.9686,507,3027
1784656994.9709,507,3039
1784656994.9732,502,3020
1784656994.9756,501,3032
1784656994.9816,501,2980
1784656994.9839,496,3016
1784656994.9862,507,3029
1784656994.9883,506,3026
1784656994.9906,503,3014
1784656994.9930,505,3024
1784656994.9953,503,3023
1784656994.9976,507,3006
1784656994.9999,508,3038
1784656995.0021,502,3035
1784656995.0045,507,3027
1784656995.0069,503,3034
1784656995.0096,505,3022
1784656995.0119,500,3018
1784656995.0141,502,3020
1784656995.0163,500,3027
1784656995.0186,500,3025
1784656995.0209,501,3030
1784656995.0232,509,3054
1784656995.0294,510,3056
1784656995.0321,505,3051
1784656995.0349,502,3032
1784656995.0374,502,3031
1784656995.0400,508,3052
1784656995.0431,509,3048
1784656995.0464,508,3061
1784656995.0499,509,3034
1784656995.0531,510,3036
1784656995.0558,507,3028
1784656995.0586,508,3022
1784656995.0608,503,3022
1784656995.0628,502,3021
1784656995.0648,497,3023
1784656995.0669,505,3034
1784656995.0693,505,3023
1784656995.0717,506,3029
1784656995.0803,509,3030
1784656995.0826,508,3038
1784656995.0846,508,3032
1784656995.0866,505,3036
1784656995.0888,506,3035
1784656995.0911,503,3030
1784656995.0936,506,3020
1784656995.0958,510,3055
1784656995.0981,512,3032
1784656995.1004,511,3040
1784656995.1027,510,3030
1784656995.1050,503,3024
1784656995.1075,503,3020
1784656995.1100,501,3018
1784656995.1122,500,3009
1784656995.1144,502,3017
1784656995.1167,507,3023
1784656995.1193,510,3043
1784656995.1216,510,3042
1784656995.1238,506,3034
1784656995.1261,500,3019
1784656995.1284,508,3031
1784656995.1308,508,3026
1784656995.1331,510,3055
1784656995.1392,511,3018
1784656995.1415,510,3052
1784656995.1438,511,3045
1784656995.1460,505,3033
1784656995.1484,511,3056
1784656995.1508,511,3060
1784656995.1531,509,3065
1784656995.1554,513,3077
1784656995.1580,513,3077
1784656995.1605,512,3067
1784656995.1628,511,3059
1784656995.1650,518,3057
1784656995.1674,514,3048
1784656995.1698,514,3064
1784656995.1720,515,3069
1784656995.1744,513,3060
1784656995.1767,512,3054
1784656995.1790,513,3046
1784656995.1813,512,3040
1784656995.1880,511,3037
1784656995.1908,510,3026
1784656995.1934,509,3039
1784656995.1960,504,3029
1784656995.1992,505,3024
1784656995.2021,503,3014
1784656995.2054,503,3020
1784656995.2082,504,3023
1784656995.2119,502,3016
1784656995.2160,502,3023
1784656995.2194,506,3041
1784656995.2221,502,3011
1784656995.2246,503,3032
1784656995.2272,501,3018
1784656995.2335,510,3047
1784656995.2362,509,3021
1784656995.2391,505,3018
1784656995.2417,505,3026
1784656995.2443,501,3017
1784656995.2474,501,3053
1784656995.2509,502,3029
1784656995.2539,501,3041
1784656995.2568,501,3012
1784656995.2599,504,3017
1784656995.2635,505,3004
1784656995.2670,500,3009
1784656995.2703,503,3014
1784656995.2732,507,3038
1784656995.2757,503,3036
1784656995.2816,507,3043
1784656995.2838,508,3039
1784656995.2859,510,3047
1784656995.2880,511,3043
1784656995.2902,508,3040
1784656995.2930,508,3033
1784656995.2956,506,3037
1784656995.2984,496,3025
1784656995.3015,498,3019
1784656995.3044,509,3053
1784656995.3076,514,3087
1784656995.3107,519,3066
1784656995.3136,518,3059
1784656995.3163,513,3056
1784656995.3189,512,3059
1784656995.3214,511,2999
1784656995.3274,506,3040
1784656995.3294,503,3028
1784656995.3313,504,3025
1784656995.3333,503,3025
1784656995.3354,507,3014
1784656995.3376,501,2999
1784656995.3399,500,3022
1784656995.3422,502,3033
1784656995.3443,501,3052
1784656995.3464,505,3024
1784656995.3485,500,3043
1784656995.3505,504,3034
1784656995.3526,507,3032
1784656995.3548,505,3024
1784656995.3568,508,3032
1784656995.3589,508,3037
1784656995.3611,504,3026
1784656995.3633,502,3005
1784656995.3654,502,3038
1784656995.3675,502,3025
1784656995.3697,503,3027
1784656995.3758,502,3027
1784656995.3781,504,3034
1784656995.3804,506,3025
1784656995.3827,505,3016
1784656995.3850,504,3024
1784656995.3873,508,3050
1784656995.3898,508,3063
1784656995.3924,510,3047
1784656995.3946,509,3034
1784656995.3965,507,3036
1784656995.3985,503,3025
1784656995.4006,500,3023
1784656995.4032,501,3012
1784656995.4057,506,3033
1784656995.4082,508,3046
1784656995.4106,508,3049
1784656995.4130,507,3048
1784656995.4154,507,3026
1784656995.4220,507,3031
1784656995.4242,504,3017
1784656995.4266,505,3025
1784656995.4289,497,3022
1784656995.4311,498,3017
1784656995.4336,500,3063
1784656995.4361,507,3039
1784656995.4386,502,3036
1784656995.4411,501,3040
1784656995.4439,502,3045
1784656995.4462,502,3025
1784656995.4486,504,3021
1784656995.4510,500,3022
1784656995.4534,506,3019
1784656995.4558,508,3056
1784656995.4583,514,3083
1784656995.4608,512,3076
1784656995.4633,512,3069
1784656995.4708,512,3056
1784656995.4730,511,3048
1784656995.4752,498,3044
1784656995.4775,502,3036
1784656995.4797,503,3026
1784656995.4822,506,3016
1784656995.4849,500,3025
1784656995.4874,501,3025
1784656995.4900,502,3034
1784656995.4928,511,3028
1784656995.4953,509,3031
1784656995.4982,506,3025
1784656995.5007,507,3030
1784656995.5032,505,3034
1784656995.5057,505,3035
1784656995.5082,502,3020
1784656995.5107,499,3026
1784656995.5130,500,3009
1784656995.5153,501,3002
1784656995.5174,497,3018
1784656995.5194,499,2991
1784656995.5216,502,3023
1784656995.5238,506,3004
1784656995.5260,505,3012
1784656995.5333,499,3023
1784656995.5356,509,3096
1784656995.5381,511,3060
1784656995.5407,510,3101
1784656995.5431,505,3055
1784656995.5457,509,3045
1784656995.5484,510,3053
1784656995.5510,510,3051
1784656995.5534,505,3041
1784656995.5560,507,3027
1784656995.5590,502,3023
1784656995.5616,513,3089
1784656995.5641,514,3076
1784656995.5666,520,3101
1784656995.5691,518,3081
1784656995.5716,519,3082
1784656995.5741,512,3083
1784656995.5817,511,3073
1784656995.5839,512,3059
1784656995.5860,510,3066
1784656995.5880,511,3055
1784656995.5900,506,3051
1784656995.5930,509,3033
1784656995.5952,508,3027
1784656995.5972,509,3038
1784656995.5992,511,3040
1784656995.6013,510,3035
1784656995.6036,509,3041
1784656995.6059,509,3037
1784656995.6086,508,3027
1784656995.6113,509,3026
1784656995.6140,507,3030
1784656995.6164,506,3023
1784656995.6189,499,3016
1784656995.6214,500,3015
1784656995.6239,500,3019
1784656995.6264,502,3015
1784656995.6289,501,3007
1784656995.6315,504,3022
1784656995.6340,506,3011
1784656995.6371,504,3017
1784656995.6437,502,3020
1784656995.6462,502,3019
1784656995.6487,496,3032
1784656995.6514,498,3025
1784656995.6540,500,3018
1784656995.6569,505,3031
1784656995.6600,507,3030
1784656995.6635,506,3023
1784656995.6675,505,3021
1784656995.6707,504,3023
1784656995.6736,499,3018
1784656995.6764,499,3018
1784656995.6791,499,3018
1784656995.6817,504,3025
1784656995.6845,509,3046
1784656995.6904,510,3042
1784656995.6924,509,3036
1784656995.6946,507,3018
1784656995.6966,501,3035
1784656995.6988,503,3033
1784656995.7013,502,3038
1784656995.7036,501,3030
1784656995.7060,501,3019
1784656995.7087,512,3035
1784656995.7109,511,3029
1784656995.7132,501,3025
1784656995.7156,492,3022
1784656995.7178,494,3001
1784656995.7201,500,3026
1784656995.7224,509,3054
1784656995.7247,515,3100
1784656995.7270,515,3089
1784656995.7293,514,3076
1784656995.7316,514,3075
1784656995.7382,513,3074
1784656995.7410,512,3065
1784656995.7438,510,3055
1784656995.7463,511,3048
1784656995.7491,506,3036
1784656995.7524,511,3039
1784656995.7558,511,3025
1784656995.7589,509,3020
1784656995.7625,507,3018
1784656995.7660,511,3040
1784656995.7693,519,3136
1784656995.7721,519,3110
1784656995.7749,518,3106
1784656995.7776,518,3084
1784656995.7842,521,3083
1784656995.7864,515,3067
1784656995.7885,516,3087
1784656995.7906,520,3109
1784656995.7928,520,3098
1784656995.7951,521,3111
1784656995.7974,521,3082
1784656995.7997,520,3099
1784656995.8020,522,3083
1784656995.8042,516,3074
1784656995.8069,514,3066
1784656995.8094,514,3063
1784656995.8117,511,3060
1784656995.8140,510,3051
1784656995.8163,510,3047
1784656995.8186,508,3037
1784656995.8209,509,3034
1784656995.8233,511,3050
1784656995.8256,509,3033
1784656995.8317,510,3043
1784656995.8339,504,3030
1784656995.8362,510,3061
1784656995.8385,510,3053
1784656995.8407,511,3056
1784656995.8431,511,3055
1784656995.8454,511,3048
1784656995.8477,511,3045
1784656995.8499,509,3035
1784656995.8521,498,3013
1784656995.8545,509,3076
1784656995.8570,508,3062
1784656995.8594,511,3060
1784656995.8617,510,3044
1784656995.8639,510,3044
1784656995.8661,506,3035
1784656995.8684,503,3027
1784656995.8707,502,3023
1784656995.8730,501,3017
1784656995.8791,499,3001
1784656995.8813,511,3068
1784656995.8837,511,3052
1784656995.8859,512,3054
1784656995.8882,527,3166
1784656995.8906,530,3141
1784656995.8929,531,3161
1784656995.8952,528,3128
1784656995.8976,527,3123
1784656995.8998,525,3100
1784656995.9021,524,3115
1784656995.9044,524,3144
1784656995.9073,526,3099
1784656995.9098,524,3095
1784656995.9121,524,3086
1784656995.9144,520,3090
1784656995.9167,547,3294
1784656995.9190,567,3370
1784656995.9212,572,3327
1784656995.9274,575,3343
1784656995.9297,575,3334
1784656995.9319,576,3337
1784656995.9341,576,3315
1784656995.9365,574,3295
1784656995.9388,572,3284
1784656995.9416,571,3274
1784656995.9439,572,3281
1784656995.9461,564,3270
1784656995.9484,568,3278
1784656995.9507,564,3255
1784656995.9529,570,3236
1784656995.9552,574,3281
1784656995.9576,566,3271
1784656995.9598,568,3267
1784656995.9620,566,3262
1784656995.9643,562,3247
1784656995.9666,561,3246
1784656995.9716,560,3229
1784656995.9755,558,3229
1784656995.9778,582,3386
1784656995.9803,583,3380
1784656995.9827,584,3376
1784656995.9851,583,3355
1784656995.9874,579,3346
1784656995.9900,581,3342
1784656995.9926,580,3319
1784656995.9949,579,3297
1784656995.9972,579,3318
1784656995.9995,576,3304
1784656996.0018,573,3276
1784656996.0040,572,3288
1784656996.0062,567,3281
1784656996.0086,572,3276
1784656996.0109,566,3264
1784656996.0131,564,3230
1784656996.0155,564,3249
1784656996.0220,560,3253
1784656996.0249,607,3564
1784656996.0275,633,3717
1784656996.0300,641,3706
1784656996.0329,644,3701
1784656996.0359,645,3691
1784656996.0387,646,3668
1784656996.0419,647,3598
1784656996.0455,645,3627
1784656996.0490,644,3613
1784656996.0521,643,3610
1784656996.0549,640,3604
1784656996.0576,639,3583
1784656996.0604,639,3569
1784656996.0633,637,3565
1784656996.0719,634,3552
1784656996.0739,633,3532
1784656996.0760,630,3517
1784656996.0781,625,3514
1784656996.0807,623,3496
1784656996.0830,620,3497
1784656996.0853,617,3476
1784656996.0876,617,3476
1784656996.0901,617,3463
1784656996.0924,616,3502
1784656996.0947,611,3446
1784656996.0970,608,3459
1784656996.0992,602,3432
1784656996.1016,604,3447
1784656996.1039,601,3410
1784656996.1065,597,3395
1784656996.1090,596,3391
1784656996.1117,594,3378
1784656996.1143,588,3365
1784656996.1166,589,3383
1784656996.1188,584,3356
1784656996.1211,584,3341
1784656996.1233,580,3368
1784656996.1280,580,3335
1784656996.1323,578,3320
1784656996.1351,578,3312
1784656996.1376,578,3316
1784656996.1402,576,3327
1784656996.1430,576,3299
1784656996.1461,571,3290
1784656996.1491,579,3354
1784656996.1521,606,3505
1784656996.1550,610,3498
1784656996.1583,611,3480
1784656996.1623,611,3490
1784656996.1663,608,3466
1784656996.1696,608,3447
1784656996.1727,608,3464
1784656996.1786,605,3416
1784656996.1808,606,3426
1784656996.1828,602,3430
1784656996.1848,603,3411
1784656996.1871,600,3382
1784656996.1896,596,3383
1784656996.1920,594,3373
1784656996.1942,593,3365
1784656996.1965,590,3363
1784656996.1987,587,3350
1784656996.2010,585,3340
1784656996.2033,583,3332
1784656996.2057,582,3324
1784656996.2084,580,3316
1784656996.2107,576,3311
1784656996.2129,576,3303
1784656996.2151,574,3287
1784656996.2175,573,3266
1784656996.2213,568,3265
1784656996.2264,567,3264
1784656996.2288,566,3263
1784656996.2312,567,3241
1784656996.2332,559,3247
1784656996.2355,558,3245
1784656996.2380,555,3228
1784656996.2407,554,3221
1784656996.2430,551,3214
1784656996.2455,551,3206
1784656996.2477,551,3199
1784656996.2499,549,3196
1784656996.2526,546,3179
1784656996.2549,544,3181
1784656996.2572,542,3166
1784656996.2597,542,3159
1784656996.2622,540,3154
1784656996.2645,533,3146
1784656996.2667,536,3142
1784656996.2724,531,3140
1784656996.2748,529,3124
1784656996.2773,527,3124
1784656996.2797,527,3115
1784656996.2821,524,3104
1784656996.2847,525,3092
1784656996.2875,523,3120
1784656996.2901,526,3140
1784656996.2929,544,3219
1784656996.2952,546,3219
1784656996.2980,545,3211
1784656996.3004,545,3214
1784656996.3028,543,3202
1784656996.3053,541,3184
1784656996.3077,545,3164
1784656996.3101,544,3177
1784656996.3126,544,3163
1784656996.3203,540,3161
1784656996.3228,539,3158
1784656996.3254,532,3149
1784656996.3279,529,3144
1784656996.3305,515,3136
1784656996.3333,519,3123
1784656996.3362,521,3147
1784656996.3388,525,3115
1784656996.3417,524,3102
1784656996.3440,522,3089
1784656996.3468,519,3092
1784656996.3493,519,3082
1784656996.3517,514,3066
1784656996.3539,513,3062
1784656996.3562,513,3056
1784656996.3586,513,3042
1784656996.3609,512,3045
1784656996.3634,511,3050
1784656996.3660,510,3050
1784656996.3688,511,3034
1784656996.3715,516,3110
1784656996.3742,515,3101
1784656996.3771,515,3100
1784656996.3856,515,3087
1784656996.3879,516,3094
1784656996.3900,516,3077
1784656996.3920,513,3064
1784656996.3943,512,3056
1784656996.3965,507,3049
1784656996.3988,508,3042
1784656996.4012,507,3047
1784656996.4036,503,3036
1784656996.4062,509,3040
1784656996.4088,510,3035
1784656996.4112,508,3032
1784656996.4134,504,3027
1784656996.4154,502,3012
1784656996.4175,498,3030
1784656996.4197,499,3010
1784656996.4221,498,3009
1784656996.4246,502,3034
1784656996.4271,506,3030
1784656996.4295,504,3007
1784656996.4317,500,3011
1784656996.4340,506,3029
1784656996.4363,502,3049
1784656996.4386,502,3026
1784656996.4409,505,3008
1784656996.4480,508,3063
1784656996.4507,507,3028
1784656996.4534,507,2995
1784656996.4561,505,3022
1784656996.4589,501,3031
1784656996.4613,502,3031
1784656996.4636,501,3025
1784656996.4659,501,3024
1784656996.4682,503,3033
1784656996.4707,507,3034
1784656996.4737,511,3025
1784656996.4762,507,3034
1784656996.4784,509,3034
1784656996.4806,510,3057
1784656996.4826,509,3041
1784656996.4848,506,3027
1784656996.4871,508,3031
1784656996.4959,510,3057
1784656996.4982,510,3047
1784656996.5003,506,3029
1784656996.5025,504,3033
1784656996.5046,500,3030
1784656996.5068,510,3046
1784656996.5090,512,3079
1784656996.5114,514,3114
1784656996.5139,508,3064
1784656996.5163,509,3045
1784656996.5186,509,3061
1784656996.5211,507,3027
1784656996.5239,509,3034
1784656996.5262,502,3023
1784656996.5287,503,3027
1784656996.5310,507,3032
1784656996.5334,501,3037
1784656996.5360,502,3032
1784656996.5384,504,3025
1784656996.5406,502,3025
1784656996.5427,504,3022
1784656996.5447,505,3046
1784656996.5469,505,3051
1784656996.5491,502,3024
1784656996.5577,501,3022
1784656996.5600,507,3038
1784656996.5622,509,3083
1784656996.5643,508,3048
1784656996.5666,507,3030
1784656996.5688,502,3032
1784656996.5712,506,3040
1784656996.5738,507,3029
1784656996.5763,505,3028
1784656996.5786,502,3026
1784656996.5809,509,3033
1784656996.5832,507,3028
1784656996.5856,505,3023
1784656996.5880,500,3019
1784656996.5911,506,3041
1784656996.5933,508,3037
1784656996.5956,507,3037
1784656996.5978,506,3035
1784656996.6002,509,3041
1784656996.6024,509,3028
1784656996.6048,506,2983
1784656996.6070,501,3025
1784656996.6092,507,3046
1784656996.6115,505,2999
1784656996.6138,505,3029
1784656996.6204,502,3021
1784656996.6230,510,3051
1784656996.6257,514,3080
1784656996.6283,513,3078
1784656996.6312,514,3066
1784656996.6335,511,3059
1784656996.6356,511,3054
1784656996.6378,511,3050
1784656996.6407,508,3046
1784656996.6429,508,3027
1784656996.6451,507,3045
1784656996.6474,507,3022
1784656996.6498,501,3001
1784656996.6522,508,3037
1784656996.6546,506,3061
1784656996.6570,497,3073
1784656996.6594,500,3057
1784656996.6617,505,3055
1784656996.6680,511,3060
1784656996.6706,510,3067
1784656996.6734,511,3055
1784656996.6760,510,3063
1784656996.6787,508,3046
1784656996.6811,508,3041
1784656996.6834,502,3020
1784656996.6858,501,3016
1784656996.6882,502,3031
1784656996.6912,505,3025
1784656996.6936,507,3007
1784656996.6959,500,3012
1784656996.6980,503,3025
1784656996.7000,505,3017
1784656996.7021,498,3011
1784656996.7043,499,3000
1784656996.7067,506,3027
1784656996.7090,513,3043
1784656996.7179,511,3047
1784656996.7201,505,3040
1784656996.7223,509,3045
1784656996.7243,502,3036
1784656996.7268,501,3043
1784656996.7288,500,3032
1784656996.7311,511,3022
1784656996.7334,507,3018
1784656996.7359,508,3026
1784656996.7383,508,3029
1784656996.7412,507,3035
1784656996.7437,509,3052
1784656996.7459,512,3075
1784656996.7481,512,3081
1784656996.7504,509,3077
1784656996.7528,511,3049
1784656996.7551,513,3037
1784656996.7574,511,3046
1784656996.7598,509,3040
1784656996.7622,508,3022
1784656996.7645,506,3047
1784656996.7667,507,3057
1784656996.7690,507,3047
1784656996.7713,509,3017
1784656996.7773,507,3035
1784656996.7796,504,3033
1784656996.7820,501,2967
1784656996.7843,502,3048
1784656996.7866,508,3057
1784656996.7890,508,3054
1784656996.7913,506,3048
1784656996.7936,510,3057
1784656996.7958,511,3051
1784656996.7980,511,3046
1784656996.8003,511,3040
1784656996.8026,507,3037
1784656996.8053,510,3047
1784656996.8079,509,3051
1784656996.8102,508,3022
1784656996.8126,507,3032
1784656996.8148,506,3033
1784656996.8171,505,3030
1784656996.8193,507,3021
1784656996.8253,502,3010
1784656996.8276,499,3029
1784656996.8299,498,3022
1784656996.8322,500,3009
1784656996.8345,500,3013
1784656996.8368,503,3050
1784656996.8394,508,3021
1784656996.8424,507,3094
1784656996.8454,506,3022
1784656996.8484,505,3030
1784656996.8514,507,3016
1784656996.8545,508,3048
1784656996.8574,509,3036
1784656996.8603,510,3056
1784656996.8632,512,3057
1784656996.8662,513,3051
1784656996.8728,511,3031
1784656996.8754,509,3064
1784656996.8779,507,3041
1784656996.8805,511,3069
1784656996.8832,511,3065
1784656996.8864,511,3056
1784656996.8891,511,3044
1784656996.8916,511,3066
1784656996.8935,510,3028
1784656996.8955,509,3040
1784656996.8976,506,3023
1784656996.8998,508,3023
1784656996.9021,506,3037
1784656996.9044,506,3043
1784656996.9067,506,3051
1784656996.9090,507,3035
1784656996.9112,505,3024
1784656996.9135,500,3010
1784656996.9200,507,3050
1784656996.9222,514,3051
1784656996.9246,511,3075
1784656996.9269,511,3076
1784656996.9292,512,3068
1784656996.9316,511,3054
1784656996.9339,512,3055
1784656996.9361,511,3062
1784656996.9387,509,3039
1784656996.9412,507,3042
1784656996.9436,503,3020
1784656996.9458,504,3024
1784656996.9482,502,3018
1784656996.9506,502,3020
1784656996.9528,506,3008
1784656996.9551,510,3021
1784656996.9574,507,3007
1784656996.9597,505,3030
1784656996.9619,504,3025
1784656996.9680,506,3008
1784656996.9703,502,3023
1784656996.9724,510,3029
1784656996.9746,509,3021
1784656996.9768,503,3013
1784656996.9792,501,2983
1784656996.9815,512,3035
1784656996.9837,510,3051
1784656996.9859,510,3044
1784656996.9884,509,3038
1784656996.9910,508,3029
1784656996.9933,510,3045
1784656996.9957,510,3035
1784656996.9979,509,3035
1784656997.0001,507,3024
1784656997.0023,505,3048
1784656997.0047,507,3021
1784656997.0069,502,3025
1784656997.0092,501,3006
1784656997.0155,505,3025
1784656997.0178,505,3017
1784656997.0201,505,3020
1784656997.0225,506,3031
1784656997.0248,508,3034
1784656997.0271,503,3037
1784656997.0294,509,3025
1784656997.0318,507,3035
1784656997.0340,510,3053
1784656997.0364,511,3038
1784656997.0389,510,3077
1784656997.0416,508,3028
1784656997.0438,502,3022
1784656997.0461,507,3038
1784656997.0484,507,3031
1784656997.0508,507,3041
1784656997.0531,511,3039
1784656997.0555,509,3031
1784656997.0614,506,3055
1784656997.0637,503,3007
1784656997.0658,503,3021
1784656997.0681,498,3027
1784656997.0704,499,3021
1784656997.0728,501,3002
1784656997.0751,507,3034
1784656997.0773,510,3062
1784656997.0796,511,3057
1784656997.0818,509,3040
1784656997.0842,507,3035
1784656997.0865,506,3024
1784656997.0892,500,3023
1784656997.0918,504,3027
1784656997.0941,500,3015
1784656997.0964,507,3036
1784656997.0987,510,3039
1784656997.1009,505,3020
1784656997.1032,504,3017
1784656997.1098,500,3018
1784656997.1125,500,3017
1784656997.1152,498,3025
1784656997.1177,497,2993
1784656997.1205,505,3038
1784656997.1236,505,3035
1784656997.1266,505,3008
1784656997.1306,502,3021
1784656997.1342,512,3066
1784656997.1370,514,3090
1784656997.1398,515,3065
1784656997.1426,513,3091
1784656997.1454,512,3058
1784656997.1481,513,3074
1784656997.1508,514,3064
1784656997.1563,513,3056
1784656997.1584,511,3051
1784656997.1604,510,3037
1784656997.1624,508,3036
1784656997.1647,503,3030
1784656997.1674,506,3030
1784656997.1697,500,3020
1784656997.1723,502,3021
1784656997.1747,498,3023
1784656997.1769,501,3018
1784656997.1791,506,3014
1784656997.1814,508,3035
1784656997.1838,508,3028
1784656997.1860,507,3027
1784656997.1883,505,3025
1784656997.1906,509,3028
1784656997.1928,507,3023
1784656997.1951,508,3033
1784656997.1973,510,3046
1784656997.2033,511,3063
1784656997.2056,510,3061
1784656997.2080,511,3062
1784656997.2103,510,3052
1784656997.2129,509,3023
1784656997.2153,509,3035
1784656997.2177,510,3025
1784656997.2199,506,3013
1784656997.2224,502,3021
1784656997.2248,501,3029
1784656997.2271,507,3029
1784656997.2294,506,3031
1784656997.2317,509,3038
1784656997.2340,509,3059
1784656997.2363,508,3040
1784656997.2387,509,3044
1784656997.2410,511,3051
1784656997.2432,511,3054
1784656997.2497,508,3050
1784656997.2525,507,3036
1784656997.2552,507,3036
1784656997.2577,504,3045
1784656997.2603,505,3026
1784656997.2631,507,3036
1784656997.2664,504,3032
1784656997.2691,503,3019
1784656997.2721,495,3016
1784656997.2756,496,3010
1784656997.2796,495,3028
1784656997.2831,503,3037
1784656997.2860,509,3041
1784656997.2886,506,3043
1784656997.2911,506,3032
1784656997.2974,504,3040
1784656997.2997,505,3045
1784656997.3018,505,3029
1784656997.3039,499,3024
1784656997.3060,504,3028
1784656997.3084,505,3028
1784656997.3107,507,3030
1784656997.3129,503,3015
1784656997.3151,503,3012
1784656997.3174,500,3010
1784656997.3198,505,3030
1784656997.3225,507,3049
1784656997.3249,505,3038
1784656997.3272,507,3027
1784656997.3295,506,3032
1784656997.3318,506,3035
1784656997.3340,508,3048
1784656997.3363,511,3083
1784656997.3386,512,3091
1784656997.3449,512,3091
1784656997.3476,516,3111
1784656997.3503,514,3085
1784656997.3529,514,3067
1784656997.3555,513,3052
1784656997.3589,512,3063
1784656997.3618,512,3045
1784656997.3648,504,3041
1784656997.3681,501,3036
1784656997.3709,485,3035
1784656997.3739,492,2986
1784656997.3771,495,3016
1784656997.3806,501,3022
1784656997.3842,499,3023
1784656997.3896,501,3033
1784656997.3934,502,3043
1784656997.3956,507,3043
1784656997.3976,505,3036
1784656997.3996,509,3043
1784656997.4022,509,3050
1784656997.4046,508,3060
1784656997.4072,508,3035
1784656997.4096,506,3032
1784656997.4119,501,3037
1784656997.4142,501,3041
1784656997.4165,504,3030
1784656997.4192,506,3006
1784656997.4217,506,3053
1784656997.4242,511,3024
1784656997.4272,511,3024
1784656997.4299,506,3000
1784656997.4327,507,3032
1784656997.4390,504,3029
1784656997.4409,502,3020
1784656997.4429,500,3012
1784656997.4449,501,3007
1784656997.4470,507,3038
1784656997.4492,506,3027
1784656997.4514,504,3019
1784656997.4535,509,3053
1784656997.4557,507,3044
1784656997.4579,505,3046
1784656997.4601,501,3031
1784656997.4622,512,3080
1784656997.4643,527,3158
1784656997.4666,523,3151
1784656997.4687,530,3140
1784656997.4708,529,3142
1784656997.4729,528,3130
1784656997.4750,526,3129
1784656997.4772,526,3117
1784656997.4793,524,3114
1784656997.4839,529,3135
1784656997.4880,530,3135
1784656997.4907,529,3117
1784656997.4930,527,3101
1784656997.4956,526,3100
1784656997.4982,523,3107
1784656997.5008,522,3095
1784656997.5028,521,3087
1784656997.5050,531,3152
1784656997.5073,543,3193
1784656997.5094,541,3189
1784656997.5116,542,3178
1784656997.5138,540,3174
1784656997.5159,538,3166
1784656997.5181,537,3161
1784656997.5203,529,3158
1784656997.5225,548,3260
1784656997.5246,559,3292
1784656997.5269,549,3286
1784656997.5291,554,3264
1784656997.5315,556,3261
1784656997.5337,555,3237
1784656997.5359,552,3242
1784656997.5381,555,3235
1784656997.5403,554,3236
1784656997.5426,555,3217
1784656997.5486,555,3210
1784656997.5508,551,3200
1784656997.5531,550,3199
1784656997.5555,547,3167
1784656997.5578,544,3198
1784656997.5602,544,3178
1784656997.5625,541,3170
1784656997.5647,540,3137
1784656997.5669,541,3151
1784656997.5691,538,3143
1784656997.5717,533,3161
1784656997.5741,530,3125
1784656997.5768,529,3124
1784656997.5791,545,3218
1784656997.5814,554,3264
1784656997.5836,577,3359
1784656997.5859,581,3338
1784656997.5881,578,3340
1784656997.5905,578,3336
1784656997.5963,600,3460
1784656997.5986,599,3434
1784656997.6009,598,3422
1784656997.6031,597,3426
1784656997.6056,596,3414
1784656997.6082,596,3406
1784656997.6105,595,3398
1784656997.6128,594,3397
1784656997.6150,591,3381
1784656997.6172,593,3360
1784656997.6197,588,3330
1784656997.6223,586,3348
1784656997.6248,586,3343
1784656997.6271,582,3333
1784656997.6293,579,3325
1784656997.6316,578,3311
1784656997.6338,576,3308
1784656997.6360,574,3300
1784656997.6430,571,3291
1784656997.6458,566,3280
1784656997.6485,563,3278
1784656997.6511,563,3263
1784656997.6538,564,3265
1784656997.6568,562,3249
1784656997.6601,560,3246
1784656997.6634,558,3219
1784656997.6667,553,3212
1784656997.6699,553,3217
1784656997.6730,550,3208
1784656997.6759,547,3204
1784656997.6794,551,3196
1784656997.6831,546,3184
1784656997.6857,550,3194
1784656997.6920,545,3175
1784656997.6948,543,3171
1784656997.6975,541,3161
1784656997.7000,543,3189
1784656997.7029,544,3191
1784656997.7063,581,3432
1784656997.7096,592,3448
1784656997.7131,594,3435
1784656997.7164,594,3426
1784656997.7190,592,3417
1784656997.7216,592,3415
1784656997.7241,591,3402
1784656997.7267,601,3380
1784656997.7291,599,3377
1784656997.7316,594,3361
1784656997.7341,607,3476
1784656997.7366,608,3487
1784656997.7393,628,3585
1784656997.7422,629,3591
1784656997.7448,629,3580
1784656997.7476,626,3560
1784656997.7538,627,3544
1784656997.7558,627,3537
1784656997.7579,627,3525
1784656997.7600,626,3517
1784656997.7623,623,3507
1784656997.7650,622,3486
1784656997.7673,619,3494
1784656997.7696,618,3466
1784656997.7722,614,3467
1784656997.7747,610,3459
1784656997.7769,610,3450
1784656997.7791,601,3422
1784656997.7814,599,3434
1784656997.7837,601,3414
1784656997.7859,596,3398
1784656997.7881,594,3397
1784656997.7904,593,3384
1784656997.7927,591,3379
1784656997.7950,592,3387
1784656997.8009,587,3367
1784656997.8032,588,3350
1784656997.8055,586,3346
1784656997.8078,584,3341
1784656997.8103,582,3328
1784656997.8127,580,3354
1784656997.8150,579,3314
1784656997.8173,577,3305
1784656997.8196,576,3291
1784656997.8223,574,3285
1784656997.8247,574,3286
1784656997.8269,572,3269
1784656997.8292,565,3272
1784656997.8314,563,3235
1784656997.8338,563,3244
1784656997.8361,560,3231
1784656997.8383,558,3236
1784656997.8406,556,3226
1784656997.8469,555,3220
1784656997.8497,562,3276
1784656997.8525,561,3263
1784656997.8550,560,3258
1784656997.8577,558,3247
1784656997.8610,561,3264
1784656997.8638,555,3251
1784656997.8673,556,3228
1784656997.8704,554,3218
1784656997.8735,556,3211
1784656997.8776,551,3203
1784656997.8811,548,3199
1784656997.8845,545,3184
1784656997.8870,545,3184
1784656997.8896,543,3176
1784656997.8958,543,3167
1784656997.8985,542,3163
1784656997.9011,538,3130
1784656997.9037,536,3146
1784656997.9066,525,3135
1784656997.9095,526,3097
1784656997.9129,525,3121
1784656997.9161,524,3127
1784656997.9186,525,3114
1784656997.9210,525,3103
1784656997.9234,522,3101
1784656997.9254,518,3097
1784656997.9276,517,3092
1784656997.9298,516,3075
1784656997.9320,516,3066
1784656997.9342,513,3081
1784656997.9366,518,3060
1784656997.9389,514,3050
1784656997.9412,513,3048
1784656997.9435,511,3019
1784656997.9457,511,2980
1784656997.9481,508,3032
1784656997.9504,512,3078
1784656997.9566,512,3014
1784656997.9589,511,3053
1784656997.9612,511,3046
1784656997.9636,510,3046
1784656997.9659,510,3037
1784656997.9685,509,3035
1784656997.9710,510,3036
1784656997.9736,508,3036
1784656997.9759,510,3034
1784656997.9781,510,3050
1784656997.9803,507,3044
1784656997.9826,511,3037
1784656997.9850,510,3027
1784656997.9874,510,3045
1784656997.9897,509,3030
1784656997.9920,514,3037
1784656997.9943,508,3038
1784656997.9966,507,3008
1784656997.9988,510,3020
1784656998.0048,510,3040
1784656998.0071,508,3029
1784656998.0096,505,3019
1784656998.0119,510,3047
1784656998.0143,511,3049
1784656998.0167,510,3053
1784656998.0189,510,3061
1784656998.0215,514,3051
1784656998.0240,513,3021
1784656998.0263,512,3033
1784656998.0286,510,3030
1784656998.0309,509,3022
1784656998.0331,503,3008
1784656998.0354,509,3034
1784656998.0377,512,3059
1784656998.0399,516,3092
1784656998.0423,518,3077
1784656998.0446,518,3090
1784656998.0506,514,3096
1784656998.0532,516,3064
1784656998.0560,513,3063
1784656998.0586,512,3059
1784656998.0612,506,3040
1784656998.0643,510,3036
1784656998.0675,508,3041
1784656998.0707,508,3022
1784656998.0738,508,3023
1784656998.0776,506,3017
1784656998.0804,505,3025
1784656998.0832,500,3021
1784656998.0857,499,3020
1784656998.0884,501,3010
1784656998.0910,508,3020
1784656998.0936,508,3019
1784656998.1004,506,3014
1784656998.1029,502,3034
1784656998.1056,509,3031
1784656998.1082,506,3028
1784656998.1112,504,3025
1784656998.1152,503,3014
1784656998.1191,506,3009
1784656998.1221,507,3036
1784656998.1255,510,3035
1784656998.1292,504,3031
1784656998.1331,508,3039
1784656998.1357,509,3034
1784656998.1383,509,3042
1784656998.1412,509,3023
1784656998.1470,507,3025
1784656998.1490,506,3024
1784656998.1510,505,3017
1784656998.1532,500,3019
1784656998.1555,499,3010
1784656998.1580,507,3052
1784656998.1602,508,3050
1784656998.1626,507,3016
1784656998.1648,508,3036
1784656998.1671,500,3047
1784656998.1694,507,3055
1784656998.1720,502,3041
1784656998.1744,501,3032
1784656998.1768,505,3044
1784656998.1790,502,3040
1784656998.1812,503,3033
1784656998.1836,503,3027
1784656998.1859,510,3063
1784656998.1883,510,3042
1784656998.1948,511,3044
1784656998.1975,510,3053
1784656998.2001,507,3040
1784656998.2027,508,3043
1784656998.2059,507,3035
1784656998.2091,505,3029
1784656998.2122,510,3030
1784656998.2155,509,3029
1784656998.2182,509,3024
1784656998.2215,506,3025
1784656998.2248,500,3006
1784656998.2278,504,3042
1784656998.2309,506,3033
1784656998.2340,501,3024
1784656998.2403,501,3013
1784656998.2423,503,3020
1784656998.2444,505,3025
1784656998.2466,505,3025
1784656998.2487,503,3013
1784656998.2512,509,3042
1784656998.2535,509,3043
1784656998.2561,502,3036
1784656998.2585,497,3030
1784656998.2607,510,3021
1784656998.2630,509,3046
1784656998.2652,510,3038
1784656998.2675,510,3030
1784656998.2698,505,2971
1784656998.2720,501,3025
1784656998.2743,505,3004
1784656998.2766,501,2971
1784656998.2789,505,3028
1784656998.2812,503,3031
1784656998.2871,508,3037
1784656998.2894,508,3040
1784656998.2917,507,3035
1784656998.2939,506,3035
1784656998.2961,507,3040
1784656998.2986,505,3056
1784656998.3013,505,3027
1784656998.3046,504,3028
1784656998.3084,503,3024
1784656998.3129,508,3034
1784656998.3172,507,3040
1784656998.3213,510,3051
1784656998.3255,511,3059
1784656998.3299,509,3052
1784656998.3359,506,3036
1784656998.3381,508,3035
1784656998.3402,507,3038
1784656998.3422,506,3037
1784656998.3446,504,3031
1784656998.3476,503,3021
1784656998.3511,502,3013
1784656998.3542,501,3037
1784656998.3575,506,3044
1784656998.3613,507,3048
1784656998.3647,511,3034
1784656998.3676,508,3046
1784656998.3703,508,3038
1784656998.3729,506,3032
1784656998.3756,505,3025
1784656998.3820,504,3025
1784656998.3848,503,3027
1784656998.3875,502,3019
1784656998.3900,507,3002
1784656998.3926,506,3028
1784656998.3958,506,3029
1784656998.3989,506,3048
1784656998.4021,509,3055
1784656998.4048,507,3050
1784656998.4086,513,3044
1784656998.4123,511,3048
1784656998.4156,511,3032
1784656998.4188,490,3045
1784656998.4215,495,3025
1784656998.4246,496,3014
1784656998.4304,498,3013
1784656998.4324,499,3041
1784656998.4346,504,3052
1784656998.4369,505,3041
1784656998.4392,507,3043
1784656998.4418,503,3026
1784656998.4441,503,3019
1784656998.4464,503,3015
1784656998.4487,502,3022
1784656998.4510,504,3031
1784656998.4533,505,3027
1784656998.4563,501,3029
1784656998.4587,505,3029
1784656998.4609,505,3011
1784656998.4632,507,3028
1784656998.4655,503,3023
1784656998.4678,502,3023
1784656998.4700,507,3013
1784656998.4759,504,3020
1784656998.4782,508,3033
1784656998.4806,510,3054
1784656998.4834,512,3068
1784656998.4862,514,3061
1784656998.4891,513,3054
1784656998.4921,512,3051
1784656998.4954,511,3028
1784656998.4987,511,3042
1784656998.5014,508,3060
1784656998.5042,507,3025
1784656998.5072,508,3076
1784656998.5108,511,3049
1784656998.5141,512,3058
1784656998.5176,511,3054
1784656998.5242,510,3052
1784656998.5270,511,3057
1784656998.5298,509,3047
1784656998.5324,509,3046
1784656998.5350,508,3037
1784656998.5379,503,3041
1784656998.5414,503,3025
1784656998.5446,502,3020
1784656998.5486,503,3007
1784656998.5517,499,3010
1784656998.5545,503,3014
1784656998.5573,507,3035
1784656998.5601,508,3038
1784656998.5629,511,3059
1784656998.5656,512,3063
1784656998.5716,513,3056
1784656998.5737,513,3066
1784656998.5758,511,3050
1784656998.5779,511,3051
1784656998.5800,509,3041
1784656998.5825,501,3037
1784656998.5848,507,3026
1784656998.5873,504,3018
1784656998.5899,506,3013
1784656998.5921,508,3054
1784656998.5945,509,3043
1784656998.5967,510,3046
1784656998.5990,506,2991
1784656998.6013,509,3037
1784656998.6036,507,3029
1784656998.6059,508,3039
1784656998.6081,509,3058
1784656998.6103,499,3026
1784656998.6126,500,3023
1784656998.6186,499,3027
1784656998.6209,502,3024
1784656998.6230,502,3024
1784656998.6251,502,3015
1784656998.6271,504,3048
1784656998.6296,506,3026
1784656998.6318,508,3027
1784656998.6341,506,3016
1784656998.6364,507,3023
1784656998.6392,508,3047
1784656998.6416,512,3045
1784656998.6439,510,3029
1784656998.6462,509,3027
1784656998.6484,511,3041
1784656998.6507,510,3038
1784656998.6530,509,3032
1784656998.6552,504,3022
1784656998.6576,500,3021
1784656998.6598,510,3060
1784656998.6661,514,3096
1784656998.6689,515,3080
1784656998.6716,515,3065
1784656998.6742,513,3074
1784656998.6768,514,3066
1784656998.6799,508,3060
1784656998.6829,508,3043
1784656998.6863,509,3046
1784656998.6893,509,3026
1784656998.6931,509,3041
1784656998.6966,507,3031
1784656998.6999,507,3047
1784656998.7028,505,3024
1784656998.7056,500,3016
1784656998.7084,500,3015
1784656998.7141,501,3029
1784656998.7162,499,3009
1784656998.7184,500,3029
1784656998.7204,506,3059
1784656998.7227,512,3073
1784656998.7252,511,3065
1784656998.7276,511,3053
1784656998.7298,511,3049
1784656998.7321,509,3040
1784656998.7344,501,3058
1784656998.7371,500,3029
1784656998.7398,500,2998
1784656998.7420,509,3069
1784656998.7444,510,3044
1784656998.7467,510,3035
1784656998.7489,510,3030
1784656998.7512,508,3027
1784656998.7535,509,3020
1784656998.7581,505,3032
1784656998.7624,502,3017
1784656998.7651,512,3015
1784656998.7677,506,3019
1784656998.7704,502,3012
1784656998.7732,508,2995
1784656998.7766,507,3035
1784656998.7801,509,3049
1784656998.7833,507,3064
1784656998.7862,501,3035
1784656998.7894,503,3026
1784656998.7925,506,3033
1784656998.7958,505,3027
1784656998.7994,501,3025
1784656998.8023,504,3030
1784656998.8085,506,3043
1784656998.8106,503,3050
1784656998.8126,503,3032
1784656998.8147,506,3036
1784656998.8169,508,3038
1784656998.8194,508,3024
1784656998.8221,505,3024
1784656998.8244,500,3007
1784656998.8267,499,3022
1784656998.8290,502,3073
1784656998.8312,509,3061
1784656998.8337,509,3059
1784656998.8360,508,3052
1784656998.8383,508,3047
1784656998.8406,508,3038
1784656998.8429,508,3032
1784656998.8452,508,3044
1784656998.8475,509,3035
1784656998.8497,509,3049
1784656998.8559,507,3043
1784656998.8581,507,3028
1784656998.8602,507,3030
1784656998.8622,509,3028
1784656998.8643,504,3017
1784656998.8668,506,3024
1784656998.8691,500,3038
1784656998.8718,501,3029
1784656998.8741,507,3054
1784656998.8763,510,3078
1784656998.8786,510,3058
1784656998.8808,511,3047
1784656998.8832,510,3034
1784656998.8855,509,3042
1784656998.8878,505,3029
1784656998.8900,502,3026
1784656998.8923,501,3026
1784656998.8946,503,3015
1784656998.8969,509,3050
1784656998.9033,513,3068
1784656998.9060,515,3088
1784656998.9087,511,3050
1784656998.9112,511,3058
1784656998.9140,511,3060
1784656998.9170,508,3038
1784656998.9204,509,3032
1784656998.9238,506,3029
1784656998.9274,512,3038
1784656998.9311,511,3030
1784656998.9344,509,3007
1784656998.9372,505,3025
1784656998.9401,509,3038
1784656998.9429,505,3036
1784656998.9490,504,3048
1784656998.9518,501,3041
1784656998.9546,505,3034
1784656998.9572,507,3032
1784656998.9597,507,3002
1784656998.9629,503,3016
1784656998.9661,503,3012
1784656998.9691,508,3046
1784656998.9721,503,3055
1784656998.9758,508,3044
1784656998.9793,505,3019
1784656998.9828,508,3038
1784656998.9857,511,3042
1784656998.9886,506,3030
1784656998.9913,500,3016
1784656998.9979,504,3028
1784656999.0006,502,3027
1784656999.0034,500,3025
1784656999.0059,510,3022
1784656999.0086,511,3054
1784656999.0119,512,3056
1784656999.0154,511,3064
1784656999.0188,510,3057
1784656999.0220,508,3032
1784656999.0253,505,3018
1784656999.0288,501,3013
1784656999.0322,504,3041
1784656999.0351,509,3042
1784656999.0380,507,3039
1784656999.0446,510,3035
1784656999.0473,506,3027
1784656999.0500,506,3046
1784656999.0526,510,3073
1784656999.0553,508,3061
1784656999.0584,511,3051
1784656999.0619,510,3052
1784656999.0651,510,3022
1784656999.0683,510,3031
1784656999.0711,507,3026
1784656999.0746,511,3057
1784656999.0781,511,3051
1784656999.0818,511,3042
1784656999.0847,510,3049
1784656999.0874,511,3064
1784656999.0895,510,3057
1784656999.0916,511,3042
1784656999.0937,510,3044
1784656999.0960,502,3031
1784656999.0982,499,3029
1784656999.1004,500,3023
1784656999.1093,500,3056
1784656999.1116,502,3028
1784656999.1136,512,3071
1784656999.1156,512,3056
1784656999.1178,511,3055
1784656999.1200,511,3048
1784656999.1224,510,3058
1784656999.1247,507,3033
1784656999.1269,507,3031
1784656999.1291,501,3023
1784656999.1315,508,3043
1784656999.1338,508,3040
1784656999.1363,508,3030
1784656999.1390,504,3021
1784656999.1413,507,3021
1784656999.1436,515,3030
1784656999.1459,512,3025
1784656999.1481,511,3013
1784656999.1505,510,3029
1784656999.1527,512,3051
1784656999.1550,511,3042
1784656999.1572,510,3030
1784656999.1597,509,3039
1784656999.1619,508,3046
1784656999.1642,510,3040
1784656999.1710,505,3032
1784656999.1738,504,3027
1784656999.1763,506,3032
1784656999.1790,505,3031
1784656999.1821,509,3044
1784656999.1854,514,3097
1784656999.1881,513,3089
1784656999.1918,512,3079
1784656999.1953,512,3067
1784656999.1983,512,3064
1784656999.2013,511,3047
1784656999.2039,513,3048
1784656999.2064,511,3055
1784656999.2091,511,3034
1784656999.2118,507,3029
1784656999.2182,506,3030
1784656999.2204,501,3024
1784656999.2224,500,3008
1784656999.2245,506,3017
1784656999.2270,513,3076
1784656999.2293,512,3078
1784656999.2317,510,3065
1784656999.2339,510,3060
1784656999.2365,508,3087
1784656999.2390,509,3073
1784656999.2413,509,3057
1784656999.2436,509,3063
1784656999.2459,509,3015
1784656999.2481,506,3047
1784656999.2505,509,3033
1784656999.2528,507,3027
1784656999.2551,507,3040
1784656999.2574,504,3047
1784656999.2634,509,3049
1784656999.2658,509,3044
1784656999.2681,510,3045
1784656999.2705,506,3018
1784656999.2728,502,3022
1784656999.2756,502,3005
1784656999.2779,503,3020
1784656999.2801,506,3034
1784656999.2824,504,3037
1784656999.2847,502,3034
1784656999.2875,506,3033
1784656999.2902,510,3048
1784656999.2926,507,3053
1784656999.2949,510,3052
1784656999.2971,511,2980
1784656999.2993,509,3037
1784656999.3016,502,3024
1784656999.3039,499,3037
1784656999.3061,500,3023
1784656999.3120,503,3031
1784656999.3145,506,3026
1784656999.3166,504,2960
1784656999.3187,499,3014
1784656999.3209,509,3060
1784656999.3232,510,3060
1784656999.3257,511,3054
1784656999.3279,509,3054
1784656999.3301,511,3043
1784656999.3326,512,3070
1784656999.3348,513,3056
1784656999.3377,512,3036
1784656999.3402,516,3090
1784656999.3426,515,3084
1784656999.3448,515,3087
1784656999.3471,516,3069
1784656999.3494,514,3066
1784656999.3517,512,3054
1784656999.3580,516,3046
1784656999.3608,511,3045
1784656999.3635,508,3039
1784656999.3662,511,3070
1784656999.3689,511,3066
1784656999.3720,511,3064
1784656999.3751,501,3055
1784656999.3784,507,3049
1784656999.3816,511,3033
1784656999.3843,510,3071
1784656999.3872,509,3047
1784656999.3909,500,3072
1784656999.3946,503,3056
1784656999.3982,499,3038
1784656999.4009,505,3058
1784656999.4073,504,3035
1784656999.4100,508,3041
1784656999.4127,507,3026
1784656999.4152,507,3023
1784656999.4179,505,3033
1784656999.4207,506,3043
1784656999.4239,502,3019
1784656999.4274,506,3025
1784656999.4311,503,3023
1784656999.4338,503,3015
1784656999.4363,503,3011
1784656999.4389,499,2978
1784656999.4416,501,3047
1784656999.4441,511,3081
1784656999.4467,509,3057
1784656999.4561,509,3059
1784656999.4582,510,3055
1784656999.4603,510,3065
1784656999.4624,511,3072
1784656999.4646,512,3067
1784656999.4672,511,3051
1784656999.4697,508,3056
1784656999.4720,506,3034
1784656999.4742,513,3038
1784656999.4765,511,3029
1784656999.4788,512,3027
1784656999.4811,511,3026
1784656999.4833,510,3024
1784656999.4857,508,3012
1784656999.4884,503,3025
1784656999.4907,507,3014
1784656999.4929,507,3012
1784656999.4952,511,3058
1784656999.4975,516,3090
1784656999.4997,515,3085
1784656999.5018,520,3094
1784656999.5041,519,3095
1784656999.5064,516,3073
1784656999.5087,513,3063
1784656999.5110,512,3076
1784656999.5169,509,3038
1784656999.5191,508,3053
1784656999.5216,511,3034
1784656999.5238,511,3046
1784656999.5261,511,2989
1784656999.5284,503,2971
1784656999.5308,510,3057
1784656999.5330,508,3066
1784656999.5352,511,3080
1784656999.5381,510,3052
1784656999.5403,510,3044
1784656999.5426,509,3043
1784656999.5449,502,3031
1784656999.5471,502,3023
1784656999.5495,502,3020
1784656999.5518,508,3039
1784656999.5540,507,3033
1784656999.5563,505,3026
1784656999.5586,506,3039
1784656999.5646,510,3072
1784656999.5669,509,3049
1784656999.5692,511,3051
1784656999.5716,506,3059
1784656999.5740,506,3028
1784656999.5765,503,3033
1784656999.5788,514,3034
1784656999.5810,512,3029
1784656999.5833,516,3017
1784656999.5859,515,3079
1784656999.5888,515,3080
1784656999.5911,513,3055
1784656999.5934,511,3046
1784656999.5957,510,3044
1784656999.5979,510,3029
1784656999.6001,511,3034
1784656999.6024,512,3035
1784656999.6047,513,3051
1784656999.6110,511,3067
1784656999.6138,511,3043
1784656999.6166,511,3038
1784656999.6191,509,3033
1784656999.6219,510,3068
1784656999.6248,510,3053
1784656999.6279,510,3029
1784656999.6311,509,3009
1784656999.6343,507,3038
1784656999.6376,511,3062
1784656999.6411,510,3063
1784656999.6446,510,3050
1784656999.6482,507,3036
1784656999.6508,507,3030
1784656999.6586,506,3037
1784656999.6606,513,3067
1784656999.6626,514,3078
1784656999.6646,513,3062
1784656999.6667,511,3059
1784656999.6692,511,3052
1784656999.6715,511,3058
1784656999.6738,513,3049
1784656999.6760,510,3038
1784656999.6783,509,3040
1784656999.6806,509,3031
1784656999.6828,508,3040
1784656999.6851,508,3023
1784656999.6877,500,3021
1784656999.6900,508,3038
1784656999.6922,504,3039
1784656999.6946,501,3029
1784656999.6968,501,3027
1784656999.6991,505,3038
1784656999.7053,505,3036
1784656999.7076,507,3035
1784656999.7100,508,3026
1784656999.7120,508,3032
1784656999.7142,508,3038
1784656999.7166,508,3039
1784656999.7192,504,3028
1784656999.7217,510,3055
1784656999.7239,515,3089
1784656999.7262,514,3080
1784656999.7286,513,3065
1784656999.7308,511,3055
1784656999.7331,511,3055
1784656999.7355,511,3049
1784656999.7377,510,3052
1784656999.7400,512,3061
1784656999.7423,512,3067
1784656999.7447,512,3058
1784656999.7470,512,3051
1784656999.7531,508,3044
1784656999.7554,509,3045
1784656999.7578,510,3055
1784656999.7601,509,3051
1784656999.7626,510,3059
1784656999.7651,511,3063
1784656999.7673,511,3053
1784656999.7698,506,3049
1784656999.7723,509,3051
1784656999.7746,512,3080
1784656999.7769,508,3064
1784656999.7791,510,3045
1784656999.7815,505,3043
1784656999.7838,508,3028
1784656999.7860,513,3059
1784656999.7883,514,3061
1784656999.7906,511,3039
1784656999.7930,510,3048
1784656999.7952,509,3046
1784656999.7975,509,3032
1784656999.7998,501,3034
1784656999.8020,508,3001
1784656999.8043,511,3036
1784656999.8066,509,3055
1784656999.8089,508,3031
1784656999.8152,507,3020
1784656999.8179,510,3051
1784656999.8206,509,3047
1784656999.8232,507,3040
1784656999.8259,505,3030
1784656999.8287,508,3029
1784656999.8319,507,3025
1784656999.8351,505,3018
1784656999.8378,499,3012
1784656999.8413,498,3006
1784656999.8450,493,2998
1784656999.8484,500,3033
1784656999.8513,500,3056
1784656999.8538,510,3094
1784656999.8564,511,3079
1784656999.8629,511,3068
1784656999.8656,507,3050
1784656999.8682,511,3057
1784656999.8707,511,3073
1784656999.8734,509,3046
1784656999.8763,508,3042
1784656999.8798,510,3052
1784656999.8831,509,3041
1784656999.8863,508,3034
1784656999.8894,504,3032
1784656999.8931,502,3021
1784656999.8966,501,3019
1784656999.8996,502,3021
1784656999.9020,501,3019
1784656999.9047,500,2981
1784656999.9106,505,3035
1784656999.9127,511,3050
1784656999.9148,508,3041
1784656999.9171,509,3032
1784656999.9196,510,3057
1784656999.9219,512,3053
1784656999.9241,508,3056
1784656999.9263,510,3048
1784656999.9286,510,3036
1784656999.9308,511,3049
1784656999.9331,509,3043
1784656999.9357,508,3047
1784656999.9387,507,3034
1784656999.9409,505,3025
1784656999.9431,502,3034
1784656999.9455,502,3018
1784656999.9477,506,3031
1784656999.9499,507,3027
1784656999.9531,505,3023
1784656999.9580,501,3023
1784656999.9603,501,3028
1784656999.9626,509,3055
1784656999.9648,510,3053
1784656999.9673,507,3046
1784656999.9698,509,3052
1784656999.9722,510,3061
1784656999.9746,510,3059
1784656999.9768,513,3053
1784656999.9791,510,3037
1784656999.9813,507,3044
1784656999.9836,507,3041
1784656999.9859,502,3041
1784656999.9881,503,3020
1784656999.9903,510,3039
1784656999.9927,508,3045
1784656999.9950,506,3027
1784656999.9973,507,3063
1784657000.0034,510,3059
1784657000.0057,509,3057
1784657000.0079,510,3052
1784657000.0100,507,3045
1784657000.0122,507,3009
1784657000.0148,504,3035
1784657000.0171,504,3034
1784657000.0196,501,3018
1784657000.0221,500,3043
1784657000.0245,506,3026
1784657000.0267,511,3053
1784657000.0289,507,3051
1784657000.0316,512,3054
1784657000.0338,525,3088
1784657000.0361,524,3107
1784657000.0384,520,3088
1784657000.0407,521,3072
1784657000.0430,514,3061
1784657000.0452,517,3069
1784657000.0519,513,3057
1784657000.0546,516,3060
1784657000.0572,515,3052
1784657000.0598,514,3047
1784657000.0626,512,3056
1784657000.0659,515,3034
1784657000.0690,512,3014
1784657000.0725,510,3080
1784657000.0760,509,3028
1784657000.0791,510,3029
1784657000.0824,509,3034
1784657000.0852,514,3028
1784657000.0877,507,3026
1784657000.0903,503,3017
1784657000.0930,510,3067
1784657000.0994,512,3081
1784657000.1020,513,3074
1784657000.1047,513,3069
1784657000.1072,513,3064
1784657000.1100,513,3056
1784657000.1129,512,3036
1784657000.1156,512,3044
1784657000.1182,510,3035
1784657000.1211,510,3022
1784657000.1234,522,3061
1784657000.1271,523,3099
1784657000.1306,524,3110
1784657000.1336,526,3112
1784657000.1361,526,3121
1784657000.1386,523,3081
1784657000.1448,522,3090
1784657000.1468,518,3083
1784657000.1490,513,3079
1784657000.1512,513,3072
1784657000.1533,510,3048
1784657000.1557,511,3045
1784657000.1580,513,3042
1784657000.1602,510,3041
1784657000.1626,507,3032
1784657000.1649,504,2995
1784657000.1673,499,3012
1784657000.1699,499,3039
1784657000.1728,499,3003
1784657000.1750,506,3013
1784657000.1770,510,3079
1784657000.1792,511,3072
1784657000.1815,511,3070
1784657000.1837,511,3061
1784657000.1859,509,3020
1784657000.1928,509,3068
1784657000.1955,508,3047
1784657000.1982,507,3024
1784657000.2008,508,3027
1784657000.2033,505,3020
1784657000.2059,501,3015
1784657000.2086,500,3011
1784657000.2111,502,3018
1784657000.2136,506,3026
1784657000.2161,501,3016
1784657000.2188,501,3038
1784657000.2219,507,3027
1784657000.2244,512,3057
1784657000.2269,511,3082
1784657000.2294,510,3047
1784657000.2319,510,3040
1784657000.2344,506,3036
1784657000.2368,501,3033
1784657000.2392,508,3035
1784657000.2413,509,3049
1784657000.2434,510,3054
1784657000.2454,512,3059
1784657000.2476,513,3111
1784657000.2498,513,3046
1784657000.2568,511,3059
1784657000.2593,510,3059
1784657000.2618,508,3014
1784657000.2642,508,3053
1784657000.2668,506,3041
1784657000.2694,507,3036
1784657000.2720,504,3025
1784657000.2741,505,3022
1784657000.2761,502,3018
1784657000.2781,501,3022
1784657000.2803,499,3028
1784657000.2826,500,3017
1784657000.2849,504,3023
1784657000.2871,510,3041
1784657000.2893,509,3040
1784657000.2916,508,3019
1784657000.2939,505,3022
1784657000.2962,506,3039
1784657000.3036,510,3057
1784657000.3059,510,3062
1784657000.3080,509,3055
1784657000.3101,510,3055
1784657000.3121,502,3076
1784657000.3146,503,3034
1784657000.3170,503,3031
1784657000.3198,501,3020
1784657000.3225,500,3015
1784657000.3252,499,3013
1784657000.3277,506,3041
1784657000.3302,509,3046
1784657000.3327,504,3079
1784657000.3353,509,3062
1784657000.3380,510,3076
1784657000.3403,509,3060
1784657000.3424,507,3047
1784657000.3444,508,3039
1784657000.3465,505,3041
1784657000.3486,504,3026
1784657000.3508,507,3027
1784657000.3531,505,3022
1784657000.3553,507,3005
1784657000.3577,500,3008
1784657000.3599,507,3047
1784657000.3671,511,3048
1784657000.3693,511,3050
1784657000.3713,511,3042
1784657000.3736,510,3049
1784657000.3759,507,3041
1784657000.3782,506,3030
1784657000.3806,502,3031
1784657000.3829,500,2971
1784657000.3854,501,3017
1784657000.3879,501,3009
1784657000.3901,506,3037
1784657000.3925,513,3082
1784657000.3948,512,3081
1784657000.3970,511,3082
1784657000.3993,505,3069
1784657000.4016,511,3054
1784657000.4039,511,3051
1784657000.4061,508,3033
1784657000.4084,506,3034
1784657000.4110,511,3051
1784657000.4134,509,3033
1784657000.4157,509,3048
1784657000.4178,507,3040
1784657000.4199,509,3042
1784657000.4219,507,3033
1784657000.4241,509,3043
1784657000.4302,507,3039
1784657000.4322,506,3039
1784657000.4346,510,3040
1784657000.4369,508,3032
1784657000.4394,508,3037
1784657000.4417,504,3020
1784657000.4439,505,3028
1784657000.4461,504,3031
1784657000.4485,500,3022
1784657000.4508,502,3024
1784657000.4536,508,3029
1784657000.4561,507,3082
1784657000.4585,505,3034
1784657000.4607,504,3026
1784657000.4630,500,3017
1784657000.4652,510,3057
1784657000.4677,513,3080
1784657000.4699,515,3108
1784657000.4759,515,3117
1784657000.4782,514,3072
1784657000.4806,512,3048
1784657000.4829,513,3055
1784657000.4851,512,3050
1784657000.4876,508,3034
1784657000.4899,510,3037
1784657000.4921,494,3029
1784657000.4943,498,3019
1784657000.4966,502,3019
1784657000.4990,506,3027
1784657000.5014,504,3028
1784657000.5046,501,3026
1784657000.5069,502,3053
1784657000.5091,506,3057
1784657000.5113,505,3040
1784657000.5136,505,3025
1784657000.5159,506,3065
1784657000.5183,511,3084
1784657000.5247,525,3085
1784657000.5274,524,3089
1784657000.5300,520,3065
1784657000.5326,516,3058
1784657000.5355,514,3053
1784657000.5387,512,3048
1784657000.5415,512,3038
1784657000.5448,507,3034
1784657000.5478,512,3064
1784657000.5505,514,3084
1784657000.5533,515,3091
1784657000.5569,513,3085
1784657000.5605,513,3068
1784657000.5640,511,3093
1784657000.5703,510,3050
1784657000.5723,510,3053
1784657000.5744,511,3065
1784657000.5766,511,3030
1784657000.5788,509,3035
1784657000.5813,506,3038
1784657000.5836,504,3025
1784657000.5862,497,3017
1784657000.5887,500,3020
1784657000.5910,508,3056
1784657000.5932,509,3072
1784657000.5956,508,3060
1784657000.5981,506,3064
1784657000.6004,500,3020
1784657000.6027,501,3032
1784657000.6050,501,3037
1784657000.6072,501,3027
1784657000.6094,506,3057
1784657000.6117,507,3035
1784657000.6184,508,3046
1784657000.6211,507,3043
1784657000.6238,504,3045
1784657000.6263,499,3028
1784657000.6291,514,3092
1784657000.6322,515,3093
1784657000.6352,516,3110
1784657000.6386,518,3110
1784657000.6423,517,3084
1784657000.6458,515,3075
1784657000.6490,517,3061
1784657000.6516,511,3059
1784657000.6541,513,3066
1784657000.6567,500,3054
1784657000.6593,507,3054
1784657000.6653,507,3042
1784657000.6674,511,3047
1784657000.6695,505,3071
1784657000.6716,502,3026
1784657000.6738,502,3021
1784657000.6763,499,3018
1784657000.6786,499,3015
1784657000.6808,511,3069
1784657000.6831,517,3113
1784657000.6856,520,3114
1784657000.6881,520,3111
1784657000.6904,518,3080
1784657000.6930,518,3092
1784657000.6952,515,3088
1784657000.6976,514,3073
1784657000.6998,519,3073
1784657000.7021,513,3055
1784657000.7044,513,3055
1784657000.7067,516,3043
1784657000.7125,514,3043
1784657000.7148,515,3033
1784657000.7171,512,3037
1784657000.7194,511,3042
1784657000.7218,508,3030
1784657000.7242,508,3031
1784657000.7264,516,3029
1784657000.7287,513,3032
1784657000.7309,509,3017
1784657000.7331,507,3019
1784657000.7357,506,3030
1784657000.7383,505,3036
1784657000.7407,502,3040
1784657000.7430,510,3014
1784657000.7453,509,3030
1784657000.7476,509,3022
1784657000.7500,509,3026
1784657000.7522,508,3020
1784657000.7568,504,3024
1784657000.7610,504,3036
1784657000.7637,503,3044
1784657000.7663,500,3019
1784657000.7689,500,3026
1784657000.7719,509,3047
1784657000.7754,509,3038
1784657000.7787,506,3041
1784657000.7819,505,3018
1784657000.7851,507,3051
1784657000.7889,501,3042
1784657000.7925,503,3032
1784657000.7959,500,3018
1784657000.7990,502,3030
1784657000.8017,508,3041
1784657000.8080,506,3035
1784657000.8108,507,3025
1784657000.8134,505,3042
1784657000.8160,503,3037
1784657000.8188,506,3042
1784657000.8222,502,3034
1784657000.8252,506,3017
1784657000.8285,507,3023
1784657000.8313,508,3027
1784657000.8339,502,3021
1784657000.8366,500,3012
1784657000.8403,498,2992
1784657000.8443,503,3012
1784657000.8477,508,3060
1784657000.8502,513,3085
1784657000.8529,515,3095
1784657000.8553,516,3089
1784657000.8578,517,3074
1784657000.8604,521,3078
1784657000.8629,513,3058
1784657000.8692,512,3061
1784657000.8720,510,3060
1784657000.8749,505,3050
1784657000.8774,509,3037
1784657000.8802,508,3044
1784657000.8837,502,3031
1784657000.8868,500,3020
1784657000.8903,503,3034
1784657000.8943,508,3050
1784657000.8977,506,3040
1784657000.9003,500,3025
1784657000.9031,501,3024
1784657000.9057,499,3032
1784657000.9083,500,3025
1784657000.9110,494,3021
1784657000.9172,498,3033
1784657000.9194,499,3033
1784657000.9215,498,3020
1784657000.9236,498,3017
1784657000.9260,498,3039
1784657000.9285,504,3030
1784657000.9309,508,3033
1784657000.9332,509,3042
1784657000.9360,507,3039
1784657000.9383,505,3008
1784657000.9406,506,3034
1784657000.9429,502,3029
1784657000.9452,502,3019
1784657000.9476,504,3013
1784657000.9498,506,3011
1784657000.9521,513,3051
1784657000.9544,512,3066
1784657000.9567,513,3088
1784657000.9590,512,3091
1784657000.9660,515,3058
1784657000.9688,511,3070
1784657000.9714,510,3058
1784657000.9739,508,3040
1784657000.9771,510,3040
1784657000.9803,509,3027
1784657000.9837,506,3040
1784657000.9871,508,3050
1784657000.9906,506,3033
1784657000.9940,501,3051
1784657000.9974,504,3055
1784657001.0000,507,3069
1784657001.0026,509,3051
1784657001.0052,511,3019
1784657001.0113,512,3079
1784657001.0134,509,3009
1784657001.0156,506,3051
1784657001.0176,507,3041
1784657001.0197,505,3050
1784657001.0220,508,3049
1784657001.0244,508,3035
1784657001.0268,509,3030
1784657001.0290,502,3029
1784657001.0313,502,3045
1784657001.0338,501,3020
1784657001.0367,501,3009
1784657001.0390,506,3023
1784657001.0413,506,3024
1784657001.0436,509,3016
1784657001.0458,508,3040
1784657001.0480,512,3062
1784657001.0504,511,3060
1784657001.0527,509,3010
1784657001.0587,510,3049
1784657001.0610,510,3048
1784657001.0633,508,3038
1784657001.0656,507,3036
1784657001.0680,504,3020
1784657001.0708,504,3022
1784657001.0730,502,3046
1784657001.0753,505,3037
1784657001.0776,511,3070
1784657001.0798,512,3109
1784657001.0821,513,3120
1784657001.0844,516,3086
1784657001.0872,514,3075
1784657001.0896,514,3061
1784657001.0919,511,3058
1784657001.0941,511,3058
1784657001.0964,511,3061
1784657001.0987,508,3051
1784657001.1010,506,3040
1784657001.1101,504,3032
1784657001.1123,510,3020
1784657001.1144,511,3053
1784657001.1164,508,3035
1784657001.1191,506,3029
1784657001.1216,503,3044
1784657001.1244,500,3024
1784657001.1271,500,3024
1784657001.1299,499,3017
1784657001.1324,500,3018
1784657001.1350,502,3020
1784657001.1382,506,3029
1784657001.1415,503,3033
1784657001.1451,504,3050
1784657001.1479,507,3044
1784657001.1506,511,3048
1784657001.1533,510,3031
1784657001.1558,511,3036
1784657001.1583,510,3021
1784657001.1608,509,3025
1784657001.1633,505,3023
1784657001.1698,506,3032
1784657001.1718,511,3074
1784657001.1739,509,3079
1784657001.1760,511,3076
1784657001.1783,510,3048
1784657001.1808,509,3020
1784657001.1830,509,3034
1784657001.1856,508,3043
1784657001.1880,502,3030
1784657001.1903,501,3020
1784657001.1926,502,3025
1784657001.1949,505,3032
1784657001.1972,502,3019
1784657001.1994,504,2981
1784657001.2018,505,3005
1784657001.2041,502,3004
1784657001.2063,498,3015
1784657001.2087,501,3039
1784657001.2109,502,3023
1784657001.2170,498,3017
1784657001.2195,499,3029
1784657001.2218,500,3023
1784657001.2241,494,3027
1784657001.2266,497,3016
1784657001.2289,501,3053
1784657001.2311,501,3037
1784657001.2333,507,3042
1784657001.2360,488,3022
1784657001.2383,495,2985
1784657001.2406,500,3055
1784657001.2428,506,3036
1784657001.2451,511,3041
1784657001.2475,508,3029
1784657001.2497,511,3065
1784657001.2520,510,3056
1784657001.2542,506,3048
1784657001.2564,506,3048
1784657001.2611,506,3033
1784657001.2654,505,3049
1784657001.2682,507,3044
1784657001.2707,503,3020
1784657001.2732,507,3066
1784657001.2761,509,3054
1784657001.2795,508,3041
1784657001.2829,508,3034
1784657001.2859,509,3022
1784657001.2898,502,3031
1784657001.2934,505,3036
1784657001.2970,508,3036
1784657001.2998,507,3023
1784657001.3024,501,3036
1784657001.3051,504,3035
1784657001.3110,505,3042
1784657001.3131,499,3033
1784657001.3151,511,3072
1784657001.3180,512,3052
1784657001.3208,511,3066
1784657001.3234,511,3064
1784657001.3270,508,3047
1784657001.3313,506,3036
1784657001.3348,503,3037
1784657001.3379,502,3027
1784657001.3419,510,3056
1784657001.3453,512,3060
1784657001.3479,511,3059
1784657001.3507,511,3050
1784657001.3535,511,3045
1784657001.3592,508,3045
1784657001.3613,502,3031
1784657001.3635,498,3025
1784657001.3656,499,3040
1784657001.3681,499,3033
1784657001.3704,507,3039
1784657001.3727,502,3030
1784657001.3749,501,3025
1784657001.3771,502,3023
1784657001.3795,502,3033
1784657001.3819,502,3026
1784657001.3843,504,3030
1784657001.3871,510,3045
1784657001.3894,509,3035
1784657001.3917,510,3026
1784657001.3939,504,3022
1784657001.3962,505,3048
1784657001.3986,510,3052
1784657001.4044,510,3045
1784657001.4068,510,3036
1784657001.4091,509,3048
1784657001.4114,513,3041
1784657001.4137,509,3049
1784657001.4161,508,3028
1784657001.4189,505,3041
1784657001.4213,505,2992
1784657001.4237,499,3025
1784657001.4259,502,3028
1784657001.4281,501,3017
1784657001.4304,509,3066
1784657001.4328,510,3052
1784657001.4351,510,3048
1784657001.4375,510,3041
1784657001.4398,507,3025
1784657001.4420,505,3038
1784657001.4443,502,3028
1784657001.4466,502,3024
1784657001.4526,502,3015
1784657001.4549,514,3074
1784657001.4572,514,3096
1784657001.4594,515,3075
1784657001.4618,511,3068
1784657001.4642,510,3062
1784657001.4666,510,3057
1784657001.4692,510,3054
1784657001.4715,518,3050
1784657001.4738,514,3040
1784657001.4761,512,3042
1784657001.4784,511,3051
1784657001.4807,509,3032
1784657001.4829,508,3031
1784657001.4851,504,3020
1784657001.4873,503,3029
1784657001.4897,501,3024
1784657001.4920,508,3048
1784657001.4983,509,3048
