host_time_s,chA_raw,chB_env
1784841159.5542,38,2025
1784841159.5551,1746,2035
1784841159.5561,1746,2068
1784841159.5570,1713,2060
1784841159.5580,1730,2056
1784841159.5589,1739,2059
1784841159.5614,1740,2056
1784841159.5640,1735,2021
1784841159.5665,1738,2050
1784841159.5690,1746,2045
1784841159.5715,1746,2053
1784841159.5734,1743,2049
1784841159.5753,1743,2048
1784841159.5772,1729,2046
1784841159.5791,1740,2051
1784841159.5809,1731,2040
1784841159.5828,1735,2035
1784841159.5848,1731,2033
1784841159.5867,1741,2047
1784841159.5887,1739,2033
1784841159.5906,1733,2030
1784841159.5926,1741,2043
1784841159.5945,1734,2056
1784841159.5965,1729,2052
1784841159.5984,1723,2047
1784841159.6003,1725,2048
1784841159.6022,1733,2051
1784841159.6042,1736,2045
1784841159.6061,1738,2045
1784841159.6081,1742,2046
1784841159.6101,1746,2045
1784841159.6121,1740,2049
1784841159.6141,1728,2061
1784841159.6161,1714,2055
1784841159.6181,1727,2052
1784841159.6203,1732,2051
1784841159.6225,1728,2051
1784841159.6247,1729,2050
1784841159.6269,1736,2069
1784841159.6291,1742,2043
1784841159.6398,1742,2048
1784841159.6400,1735,2062
1784841159.6401,1737,2053
1784841159.6403,1728,2064
1784841159.6405,1731,2017
1784841159.6407,1720,2049
1784841159.6427,1729,2041
1784841159.6448,1742,2061
1784841159.6468,1744,2054
1784841159.6488,1734,2049
1784841159.6509,1740,2045
1784841159.6529,1743,2047
1784841159.6557,1740,2061
1784841159.6585,1721,2054
1784841159.6613,1727,2059
1784841159.6641,1737,2056
1784841159.6668,1734,2042
1784841159.6696,1730,2057
1784841159.6707,1734,2054
1784841159.6717,1738,2043
1784841159.6728,1744,2049
1784841159.6738,1742,2054
1784841159.6749,1743,2066
1784841159.6759,1726,2063
1784841159.6777,1732,2051
1784841159.6794,1726,2049
1784841159.6812,1729,2052
1784841159.6830,1733,2049
1784841159.6848,1744,2051
1784841159.6865,1741,2059
1784841159.6889,1739,2051
1784841159.6912,1744,2053
1784841159.6935,1771,2064
1784841159.6958,1723,2062
1784841159.6982,1717,2093
1784841159.7048,1728,2062
1784841159.7114,1741,2064
1784841159.7180,1735,2055
1784841159.7246,1733,2058
1784841159.7312,1737,2095
1784841159.7378,1743,2062
1784841159.7378,1748,2064
1784841159.7379,1737,2057
1784841159.7380,1725,2086
1784841159.7380,1729,2045
1784841159.7381,1735,2060
1784841159.7382,1728,2044
1784841159.7382,1733,2044
1784841159.7383,1742,2028
1784841159.7384,1744,2037
1784841159.7384,1746,2045
1784841159.7385,1737,2047
1784841159.7386,1725,2060
1784841159.7401,1724,2059
1784841159.7417,1725,2049
1784841159.7433,1726,2039
1784841159.7448,1734,2044
1784841159.7464,1741,2058
1784841159.7480,1740,2044
1784841159.7497,1734,2044
1784841159.7514,1740,2042
1784841159.7531,1750,2023
1784841159.7548,1746,2065
1784841159.7565,1724,2065
1784841159.7676,1726,2061
1784841159.7678,1715,2066
1784841159.7680,1735,2054
1784841159.7681,1734,2063
1784841159.7683,1739,2063
1784841159.7685,1740,2052
1784841159.7705,1758,2045
1784841159.7725,1746,2054
1784841159.7745,1742,2054
1784841159.7766,1746,2043
1784841159.7786,1903,2070
1784841159.7806,1726,2065
1784841159.7827,1722,2062
1784841159.7847,1728,2064
1784841159.7867,1737,2060
1784841159.7888,1733,2052
1784841159.7908,1728,2056
1784841159.7928,1739,2062
1784841159.7949,1734,2044
1784841159.7969,1722,2047
1784841159.7989,1717,2056
1784841159.8010,1726,2060
1784841159.8030,1727,2051
1784841159.8050,1738,2047
1784841159.8071,1736,2047
1784841159.8091,1735,2045
1784841159.8111,1746,2048
1784841159.8132,1737,2058
1784841159.8152,1751,2046
1784841159.8172,1719,2043
1784841159.8193,1734,2053
1784841159.8213,1740,1995
1784841159.8233,1736,2042
1784841159.8253,1735,2045
1784841159.8274,1739,2040
1784841159.8294,1743,2046
1784841159.8314,1742,2037
1784841159.8335,1740,2047
1784841159.8355,1743,2053
1784841159.8375,1744,2052
1784841159.8396,1713,2049
1784841159.8416,1722,2052
1784841159.8436,1730,2055
1784841159.8457,1740,2044
1784841159.8477,1740,2043
1784841159.8497,1737,2036
1784841159.8518,1741,2034
1784841159.8538,1745,2056
1784841159.8558,1746,2057
1784841159.8579,1727,2052
1784841159.8599,1721,2050
1784841159.8619,1731,2057
1784841159.8640,1739,2053
1784841159.8660,1731,2050
1784841159.8680,1735,2046
1784841159.8701,1739,2048
1784841159.8721,1750,2041
1784841159.8741,1745,2052
1784841159.8761,1736,2054
1784841159.8782,1729,2052
1784841159.8802,1740,2039
1784841159.8822,1729,2043
1784841159.8843,1727,2048
1784841159.8863,1736,2045
1784841159.8883,1742,2036
1784841159.8904,1741,2041
1784841159.8924,1740,2035
1784841159.8944,1741,2044
1784841159.8965,1745,2053
1784841159.8985,1727,2037
1784841159.9005,1726,2029
1784841159.9026,1727,2038
1784841159.9046,1734,2039
1784841159.9066,1738,2040
1784841159.9087,1734,2040
1784841159.9107,1729,2035
1784841159.9127,1748,2025
1784841159.9148,1745,2041
1784841159.9168,1733,2033
1784841159.9188,1715,2044
1784841159.9209,1727,2037
1784841159.9229,1736,2036
1784841159.9249,1732,2037
1784841159.9269,1731,2035
1784841159.9290,1740,2044
1784841159.9310,1745,2033
1784841159.9330,1743,2032
1784841159.9351,1736,2037
1784841159.9371,1736,2034
1784841159.9391,1726,2032
1784841159.9412,1727,2031
1784841159.9432,1726,2027
1784841159.9452,1732,2026
1784841159.9473,1741,2026
1784841159.9493,1743,2026
1784841159.9513,1734,2017
1784841159.9534,1741,2024
1784841159.9554,1740,2024
1784841159.9574,1749,2041
1784841159.9595,1727,2039
1784841159.9615,1732,2041
1784841159.9635,1736,2038
1784841159.9656,1742,2036
1784841159.9676,1740,2041
1784841159.9696,1731,2044
1784841159.9717,1737,2007
1784841159.9737,1743,2033
1784841159.9757,1743,2034
1784841159.9777,1771,2033
1784841159.9798,1728,2029
1784841159.9818,1730,2031
1784841159.9838,1729,2029
1784841159.9859,1728,2025
1784841159.9879,1730,2027
1784841159.9899,1734,2032
1784841159.9920,1740,2018
1784841159.9940,1735,2024
1784841159.9953,1742,2023
1784841159.9966,1746,2034
1784841159.9978,1730,2028
1784841159.9991,1730,2033
1784841160.0004,1727,2027
1784841160.0017,1730,2036
1784841160.0038,1739,2031
1784841160.0060,1732,2025
1784841160.0081,1735,2024
1784841160.0103,1744,2026
1784841160.0124,1749,2028
1784841160.0236,1738,2043
1784841160.0237,1717,2034
1784841160.0238,1726,2030
1784841160.0239,1738,2036
1784841160.0241,1737,2056
1784841160.0242,1735,2034
1784841160.0262,1742,2027
1784841160.0282,1744,2034
1784841160.0302,1744,2030
1784841160.0321,1741,2033
1784841160.0341,1749,2037
1784841160.0361,1718,2042
1784841160.0381,1733,2037
1784841160.0400,1732,2044
1784841160.0420,1736,2035
1784841160.0440,1743,2028
1784841160.0459,1738,2023
1784841160.0479,1734,2033
1784841160.0498,1742,2012
1784841160.0518,1745,2040
1784841160.0537,1736,2031
1784841160.0557,1719,2028
1784841160.0576,1723,2032
1784841160.0596,1729,2025
1784841160.0614,1737,2023
1784841160.0632,1744,2023
1784841160.0651,1731,2022
1784841160.0669,1741,2017
1784841160.0687,1750,2019
1784841160.0705,1742,2026
1784841160.0728,1739,2023
1784841160.0752,1739,2031
1784841160.0775,1735,2032
1784841160.0798,1732,2019
1784841160.0821,1727,2019
1784841160.0842,1738,2024
1784841160.0864,1743,2027
1784841160.0885,1741,2023
1784841160.0907,1736,2015
1784841160.0928,1742,2027
1784841160.0950,1742,2033
1784841160.0985,1730,2031
1784841160.1021,1726,2028
1784841160.1056,1730,2027
1784841160.1091,1744,2023
1784841160.1127,1741,2029
1784841160.1162,1728,2031
1784841160.1214,1738,2022
1784841160.1267,1743,2025
1784841160.1319,1745,2031
1784841160.1372,1737,2032
1784841160.1424,1722,2029
1784841160.1476,1731,2033
1784841160.1478,1730,2028
1784841160.1480,1734,2032
1784841160.1482,1731,2025
1784841160.1483,1741,2024
1784841160.1485,1741,2020
1784841160.1487,1743,2024
1784841160.1489,1736,2025
1784841160.1490,1744,2024
1784841160.1492,1731,2018
1784841160.1494,1736,2015
1784841160.1496,1725,2020
1784841160.1536,1738,2020
1784841160.1537,1741,2015
1784841160.1538,1737,2016
1784841160.1540,1735,2015
1784841160.1541,1733,2018
1784841160.1543,1746,2026
1784841160.1565,1743,2027
1784841160.1588,1713,2036
1784841160.1610,1725,2024
1784841160.1633,1738,2029
1784841160.1655,1744,2021
1784841160.1678,1732,2020
1784841160.1709,1733,2020
1784841160.1741,1740,2021
1784841160.1772,1745,2019
1784841160.1804,1743,2022
1784841160.1835,1741,2018
1784841160.1867,1724,2019
1784841160.1898,1734,2007
1784841160.1929,1737,2016
1784841160.1961,1727,2008
1784841160.1992,1738,2014
1784841160.2024,1746,2007
1784841160.2055,1742,2016
1784841160.2087,1742,2013
1784841160.2118,1741,2018
1784841160.2149,1754,2024
1784841160.2181,1730,2028
1784841160.2212,1726,2027
1784841160.2244,1727,2020
1784841160.2245,1740,2017
1784841160.2245,1738,2021
1784841160.2246,1743,2023
1784841160.2247,1736,2014
1784841160.2248,1745,2020
1784841160.2249,1752,2019
1784841160.2249,1871,2033
1784841160.2250,1724,2028
1784841160.2251,1726,2024
1784841160.2252,1741,2022
1784841160.2253,1736,2027
1784841160.2272,1734,2021
1784841160.2292,1738,2023
1784841160.2312,1747,2024
1784841160.2332,1748,2023
1784841160.2352,1730,2027
1784841160.2371,1732,2016
1784841160.2420,1730,2025
1784841160.2468,1725,2017
1784841160.2516,1725,2013
1784841160.2564,1732,2012
1784841160.2612,1742,2025
1784841160.2660,1735,2019
1784841160.2662,1730,2011
1784841160.2663,1731,2009
1784841160.2665,1740,2013
1784841160.2666,1739,2024
1784841160.2668,1720,2026
1784841160.2669,1726,2024
1784841160.2672,1738,2022
1784841160.2675,1744,2022
1784841160.2678,1731,2016
1784841160.2681,1727,2021
1784841160.2684,1739,2008
1784841160.2893,1744,2016
1784841160.2907,1743,2017
1784841160.2922,1739,2012
1784841160.2936,1718,2019
1784841160.2950,1736,2021
1784841160.2965,1731,2016
1784841160.2967,1727,2013
1784841160.2968,1734,2015
1784841160.2970,1736,2008
1784841160.2972,1739,2017
1784841160.2974,1746,2015
1784841160.2976,1732,2014
1784841160.2988,1751,2019
1784841160.3000,1730,2015
1784841160.3011,1721,2019
1784841160.3023,1728,2010
1784841160.3035,1738,2017
1784841160.3047,1746,2015
1784841160.3071,1731,2016
1784841160.3095,1739,2018
1784841160.3120,1750,2006
1784841160.3144,1740,2007
1784841160.3168,1863,2020
1784841160.3192,1725,2016
1784841160.3204,1726,2020
1784841160.3216,1733,2015
1784841160.3228,1738,2022
1784841160.3240,1733,2014
1784841160.3252,1736,2014
1784841160.3264,1744,2015
1784841160.3288,1749,2019
1784841160.3312,1741,2016
1784841160.3337,1732,2020
1784841160.3361,1724,2022
1784841160.3385,1731,2017
1784841160.3418,1727,2016
1784841160.3452,1738,2013
1784841160.3485,1737,2019
1784841160.3518,1747,2030
1784841160.3552,1736,2012
1784841160.3585,1737,2011
1784841160.3591,1744,1993
1784841160.3596,1745,2032
1784841160.3602,1726,2025
1784841160.3607,1725,2024
1784841160.3613,1741,2023
1784841160.3618,1744,2026
1784841160.3659,1729,2020
1784841160.3700,1729,2017
1784841160.3740,1735,2020
1784841160.3781,1752,2023
1784841160.3822,1737,2022
1784841160.3863,1736,2018
1784841160.3865,1732,2007
1784841160.3868,1736,2017
1784841160.3871,1729,2014
1784841160.3873,1726,2019
1784841160.3876,1735,2013
1784841160.3879,1738,2012
1784841160.3900,1746,2008
1784841160.3921,1744,2005
1784841160.3942,1741,2014
1784841160.3962,1751,2029
1784841160.3983,1739,2023
1784841160.4076,1726,2020
1784841160.4077,1735,2020
1784841160.4078,1739,2026
1784841160.4080,1743,2023
1784841160.4081,1739,2017
1784841160.4082,1739,2025
1784841160.4102,1746,2010
1784841160.4122,1749,1991
1784841160.4142,1738,2025
1784841160.4162,1720,2027
1784841160.4182,1729,2027
1784841160.4202,1737,2035
1784841160.4222,1729,2025
1784841160.4242,1734,2020
1784841160.4262,1743,2028
1784841160.4282,1744,2024
1784841160.4302,1738,2021
1784841160.4322,1738,2026
1784841160.4343,1738,2013
1784841160.4365,1728,2019
1784841160.4387,1731,2014
1784841160.4409,1728,2014
1784841160.4430,1735,2013
1784841160.4452,1743,2017
1784841160.4468,1733,2012
1784841160.4483,1734,2010
1784841160.4499,1734,2011
1784841160.4514,1742,2019
1784841160.4530,1744,2022
1784841160.4545,1723,2027
1784841160.4581,1732,2025
1784841160.4617,1727,2020
1784841160.4652,1739,2024
1784841160.4688,1732,2021
1784841160.4723,1733,2016
1784841160.4734,1741,2016
1784841160.4745,1745,2017
1784841160.4756,1743,2019
1784841160.4766,1745,2007
1784841160.4777,1734,2022
1784841160.4788,1728,2020
1784841160.4807,1730,2018
1784841160.4825,1734,2011
1784841160.4844,1734,2014
1784841160.4862,1739,2011
1784841160.4881,1743,2013
1784841160.4900,1740,2018
1784841160.4920,1741,2016
1784841160.4940,1746,2018
1784841160.4959,1729,2017
1784841160.4979,1725,2020
1784841160.4999,1723,2020
1784841160.5019,1741,2023
1784841160.5039,1743,2016
1784841160.5059,1746,2015
1784841160.5080,1729,2022
1784841160.5100,1748,2020
1784841160.5120,1745,2021
1784841160.5140,1738,2025
1784841160.5161,1728,2023
1784841160.5182,1733,2037
1784841160.5203,1737,2019
1784841160.5224,1731,2015
1784841160.5245,1726,2017
1784841160.5356,1742,2015
1784841160.5358,1744,2014
1784841160.5359,1738,2013
1784841160.5361,1732,2026
1784841160.5362,1741,2016
1784841160.5364,1732,2014
1784841160.5383,1730,2020
1784841160.5402,1734,2012
1784841160.5421,1734,2007
1784841160.5440,1734,2002
1784841160.5459,1738,2008
1784841160.5478,1735,2003
1784841160.5507,1740,2015
1784841160.5535,1746,2018
1784841160.5563,1759,2020
1784841160.5592,1723,2025
1784841160.5620,1725,2018
1784841160.5649,1732,2022
1784841160.5660,1735,2016
1784841160.5672,1734,2017
1784841160.5683,1732,2014
1784841160.5694,1748,2012
1784841160.5706,1745,2009
1784841160.5717,1743,2018
1784841160.5735,1743,2031
1784841160.5753,1724,2015
1784841160.5771,1727,2027
1784841160.5789,1730,2022
1784841160.5807,1733,2027
1784841160.5825,1729,2018
1784841160.5856,1742,2013
1784841160.5888,1737,2017
1784841160.5919,1736,2022
1784841160.5951,1745,2030
1784841160.5982,1736,2016
1784841160.5997,1725,2018
1784841160.6012,1725,1991
1784841160.6027,1729,2014
1784841160.6042,1739,2008
1784841160.6058,1739,2011
1784841160.6073,1733,2015
1784841160.6097,1736,2002
1784841160.6121,1745,2012
1784841160.6146,1746,2003
1784841160.6170,1738,2022
1784841160.6195,1718,2014
1784841160.6219,1733,2012
1784841160.6233,1732,2023
1784841160.6246,1734,2013
1784841160.6260,1737,2020
1784841160.6273,1742,2014
1784841160.6287,1742,2010
1784841160.6301,1742,2011
1784841160.6333,1736,2009
1784841160.6365,1742,2008
1784841160.6398,1733,2022
1784841160.6430,1728,2027
1784841160.6462,1725,2018
1784841160.6495,1724,2007
1784841160.6501,1745,2023
1784841160.6507,1737,2023
1784841160.6513,1734,2018
1784841160.6519,1740,2023
1784841160.6525,1742,2035
1784841160.6637,1746,2031
1784841160.6639,1737,2031
1784841160.6640,1715,2029
1784841160.6641,1729,2032
1784841160.6643,1736,2033
1784841160.6644,1731,2025
1784841160.6663,1730,2026
1784841160.6683,1738,2029
1784841160.6702,1746,2029
1784841160.6721,1742,2024
1784841160.6740,1734,2032
1784841160.6759,1725,2034
1784841160.6780,1735,2025
1784841160.6801,1736,2027
1784841160.6822,1732,2021
1784841160.6843,1731,2027
1784841160.6863,1739,2031
1784841160.6884,1741,2020
1784841160.6908,1740,2021
1784841160.6932,1744,2028
1784841160.6955,1745,2052
1784841160.6979,1728,2046
1784841160.7002,1725,2039
1784841160.7026,1725,2040
1784841160.7048,1739,2033
1784841160.7070,1739,2039
1784841160.7091,1730,2032
1784841160.7113,1733,2030
1784841160.7135,1745,2031
1784841160.7156,1746,2030
1784841160.7172,1733,2050
1784841160.7187,1715,2054
1784841160.7202,1727,2043
1784841160.7217,1738,2039
1784841160.7233,1729,2042
1784841160.7263,1728,2041
1784841160.7293,1735,2039
1784841160.7323,1743,2029
1784841160.7353,1740,2037
1784841160.7383,1735,2043
1784841160.7413,1749,2057
1784841160.7422,1725,2049
1784841160.7431,1722,2047
1784841160.7440,1725,2048
1784841160.7449,1731,2054
1784841160.7457,1741,2058
1784841160.7466,1744,2049
1784841160.7486,1737,2043
1784841160.7507,1743,2040
1784841160.7527,1744,2046
1784841160.7547,1746,2066
1784841160.7567,1722,2066
1784841160.7588,1724,2062
1784841160.7606,1737,2062
1784841160.7624,1743,2057
1784841160.7642,1733,2057
1784841160.7660,1730,2051
1784841160.7678,1743,2065
1784841160.7696,1743,2084
1784841160.7718,1745,2048
1784841160.7741,1747,2067
1784841160.7763,1724,2064
1784841160.7785,1737,2065
1784841160.7807,1728,2063
1784841160.7916,1728,2067
1784841160.7917,1733,2061
1784841160.7918,1740,2066
1784841160.7920,1740,2060
1784841160.7921,1737,2031
1784841160.7922,1742,2065
1784841160.7942,1743,2074
1784841160.7963,1735,2076
1784841160.7983,1720,2074
1784841160.8003,1728,2070
1784841160.8024,1737,2073
1784841160.8044,1737,2068
1784841160.8064,1726,2070
1784841160.8084,1738,2069
1784841160.8105,1744,2057
1784841160.8125,1751,2069
1784841160.8145,1739,2078
1784841160.8165,1714,2076
1784841160.8195,1723,2077
1784841160.8224,1731,2078
1784841160.8254,1731,2077
1784841160.8284,1730,2080
1784841160.8313,1734,2112
1784841160.8343,1743,2075
1784841160.8355,1749,2069
1784841160.8367,1739,2066
1784841160.8379,1798,2073
1784841160.8390,1729,2069
1784841160.8402,1727,2053
1784841160.8414,1725,2065
1784841160.8440,1731,2110
1784841160.8467,1744,2062
1784841160.8493,1726,2061
1784841160.8519,1734,2061
1784841160.8545,1737,2051
1784841160.8558,1746,2075
1784841160.8571,1744,2075
1784841160.8584,1722,2078
1784841160.8596,1720,2078
1784841160.8609,1731,2073
1784841160.8622,1736,2076
1784841160.8655,1734,2072
1784841160.8687,1731,2070
1784841160.8719,1741,2071
1784841160.8752,1745,2077
1784841160.8784,1740,2087
1784841160.8817,1734,2044
1784841160.8824,1725,2068
1784841160.8832,1731,2075
1784841160.8839,1732,2064
1784841160.8847,1729,2070
1784841160.8854,1734,2065
1784841160.8862,1740,2063
1784841160.8884,1741,2059
1784841160.8906,1735,2049
1784841160.8928,1743,2069
1784841160.8950,1740,2077
1784841160.8972,1720,2079
1784841160.8994,1725,2072
1784841160.9018,1722,2072
1784841160.9043,1735,2070
1784841160.9067,1737,2067
1784841160.9092,1734,2071
1784841160.9116,1739,2068
1784841160.9196,1740,2064
1784841160.9199,1747,2068
1784841160.9202,1733,2062
1784841160.9204,1724,2060
1784841160.9207,1728,2066
1784841160.9210,1730,2072
1784841160.9229,1728,2061
1784841160.9248,1732,2059
1784841160.9268,1737,2060
1784841160.9287,1744,2059
1784841160.9306,1742,2061
1784841160.9325,1733,2056
1784841160.9358,1737,2063
1784841160.9390,1727,2052
1784841160.9422,1724,2058
1784841160.9454,1723,2057
1784841160.9486,1732,2063
1784841160.9518,1738,2056
1784841160.9525,1740,2058
1784841160.9531,1738,2056
1784841160.9537,1741,2052
1784841160.9544,1745,2052
1784841160.9550,1749,2069
1784841160.9556,1732,2070
1784841160.9575,1722,2063
1784841160.9593,1740,2064
1784841160.9611,1731,2065
1784841160.9629,1735,2066
1784841160.9647,1731,2062
1784841160.9665,1739,2052
1784841160.9689,1744,2060
1784841160.9713,1746,2063
1784841160.9737,1743,2063
1784841160.9761,1732,2066
1784841160.9785,1729,2063
1784841160.9807,1720,2063
1784841160.9828,1725,2067
1784841160.9849,1735,2063
1784841160.9871,1739,2031
1784841160.9892,1740,2057
1784841160.9914,1735,2059
1784841160.9932,1741,2069
1784841160.9951,1745,2061
1784841160.9969,1730,2062
1784841160.9987,1727,2103
1784841161.0006,1727,2057
1784841161.0024,1741,2057
1784841161.0048,1733,2027
1784841161.0072,1728,2057
1784841161.0096,1732,2055
1784841161.0120,1744,2056
1784841161.0144,1745,2050
1784841161.0168,1749,2050
1784841161.0190,1719,2048
1784841161.0211,1729,2043
1784841161.0233,1732,2045
1784841161.0254,1733,2040
1784841161.0276,1732,2042
1784841161.0297,1741,2036
1784841161.0314,1744,2035
1784841161.0331,1741,2039
1784841161.0348,1735,2043
1784841161.0365,1738,2047
1784841161.0382,1727,2038
1784841161.0476,1730,2039
1784841161.0477,1730,2038
1784841161.0479,1741,2040
1784841161.0481,1743,2039
1784841161.0483,1744,2036
1784841161.0485,1740,2032
1784841161.0504,1737,2041
1784841161.0523,1741,2044
1784841161.0542,1739,2050
1784841161.0562,1721,2056
1784841161.0581,1726,2028
1784841161.0600,1734,2053
1784841161.0621,1738,2042
1784841161.0642,1738,2039
1784841161.0664,1729,2060
1784841161.0685,1742,2036
1784841161.0706,1743,2045
1784841161.0727,1742,2054
1784841161.0746,1732,2038
1784841161.0764,1731,2039
1784841161.0782,1732,2028
1784841161.0800,1733,2038
1784841161.0818,1726,2037
1784841161.0836,1731,2029
1784841161.0854,1733,2030
1784841161.0872,1749,2030
1784841161.0890,1735,2029
1784841161.0908,1743,2025
1784841161.0926,1809,2034
1784841161.0944,1729,2029
1784841161.0968,1723,2038
1784841161.0991,1725,2035
1784841161.1014,1741,2028
1784841161.1038,1745,2031
1784841161.1061,1743,2030
1784841161.1082,1740,2033
1784841161.1103,1742,2030
1784841161.1124,1744,2034
1784841161.1145,1738,2030
1784841161.1166,1722,2038
1784841161.1187,1734,2019
1784841161.1208,1734,2023
1784841161.1229,1733,2026
1784841161.1250,1728,2021
1784841161.1271,1736,2027
1784841161.1292,1745,2020
1784841161.1313,1753,2016
1784841161.1330,1730,2025
1784841161.1347,1729,2017
1784841161.1364,1728,2016
1784841161.1382,1755,2021
1784841161.1399,1727,2012
1784841161.1416,1742,2014
1784841161.1436,1736,2012
1784841161.1456,1742,2018
1784841161.1476,1754,1976
1784841161.1496,1740,2014
1784841161.1516,1715,2024
1784841161.1536,1706,2013
1784841161.1559,1729,2006
1784841161.1581,1720,2005
1784841161.1604,1722,2009
1784841161.1627,1763,2010
1784841161.1649,1788,2031
1784841161.1756,1774,1999
1784841161.1757,1765,2007
1784841161.1758,1734,2001
1784841161.1759,1748,2009
1784841161.1760,1741,2000
1784841161.1762,1717,2003
1784841161.1781,1713,2011
1784841161.1800,1720,2001
1784841161.1820,1709,1997
1784841161.1839,1722,1999
1784841161.1859,1741,1992
1784841161.1878,1741,1982
1784841161.1900,1732,1997
1784841161.1922,1746,1990
1784841161.1944,1753,1988
1784841161.1967,1742,1990
1784841161.1989,1725,1994
1784841161.2011,1736,1983
1784841161.2028,1741,1991
1784841161.2046,1745,1986
1784841161.2063,1742,1987
1784841161.2081,1743,1984
1784841161.2098,1748,1987
1784841161.2116,1749,1986
1784841161.2134,1744,1985
1784841161.2152,1738,1981
1784841161.2170,1739,1986
1784841161.2188,1745,1982
1784841161.2206,1742,1982
1784841161.2224,1742,1972
1784841161.2248,1748,2016
1784841161.2272,1764,1975
1784841161.2296,1747,1963
1784841161.2320,1746,1981
1784841161.2344,1747,1975
1784841161.2364,1747,1956
1784841161.2383,1736,1975
1784841161.2403,1737,1972
1784841161.2423,1745,1969
1784841161.2442,1750,1979
1784841161.2462,1746,1966
1784841161.2482,1730,1972
1784841161.2501,1729,1971
1784841161.2520,1736,1972
1784841161.2540,1746,1971
1784841161.2559,1734,1967
1784841161.2579,1735,1972
1784841161.2599,1743,1969
1784841161.2620,1747,1965
1784841161.2641,1745,1961
1784841161.2662,1748,1963
1784841161.2682,1749,1965
1784841161.2703,1758,1946
1784841161.2722,1746,1970
1784841161.2741,1747,1959
1784841161.2759,1729,1957
1784841161.2778,1738,1968
1784841161.2797,1730,1959
1784841161.2816,1728,1960
1784841161.2838,1729,1953
1784841161.2859,1744,1957
1784841161.2881,1740,1955
1784841161.2902,1737,1956
1784841161.2924,1744,1961
1784841161.3036,1746,1964
1784841161.3037,1735,1954
1784841161.3038,1732,1943
1784841161.3039,1742,1956
1784841161.3040,1739,1948
1784841161.3042,1741,1948
1784841161.3061,1758,1936
1784841161.3081,1732,1954
1784841161.3100,1756,1950
1784841161.3120,1758,1948
1784841161.3139,1764,1963
1784841161.3159,1756,1969
1784841161.3185,1772,1953
1784841161.3212,1818,1959
1784841161.3238,1750,1953
1784841161.3265,1721,1997
1784841161.3292,1753,1970
1784841161.3318,1736,2011
1784841161.3332,1702,1953
1784841161.3345,1711,1962
1784841161.3359,1720,1970
1784841161.3372,1796,1968
1784841161.3386,1816,1968
1784841161.3400,1645,1999
1784841161.3419,1704,1970
1784841161.3438,1727,1967
1784841161.3457,1716,1988
1784841161.3476,1727,1965
1784841161.3495,1706,1962
1784841161.3514,2023,2034
1784841161.3535,3041,3120
1784841161.3557,1497,3058
1784841161.3578,1558,3049
1784841161.3599,1608,3035
1784841161.3621,1619,3021
1784841161.3641,1631,3031
1784841161.3661,1659,3010
1784841161.3681,1656,3011
1784841161.3701,1682,3000
1784841161.3720,1758,3014
1784841161.3740,1711,2988
1784841161.3760,1666,2920
1784841161.3780,4095,4095
1784841161.3800,1094,4095
1784841161.3819,1146,4095
1784841161.3839,996,4095
1784841161.3859,1045,4095
1784841161.3879,1129,4095
1784841161.3899,1210,4095
1784841161.3919,1294,4095
1784841161.3939,1360,4095
1784841161.3959,1415,4095
1784841161.3979,1464,4095
1784841161.3999,1521,4095
1784841161.4018,1592,4095
1784841161.4038,1665,4095
1784841161.4058,3528,4095
1784841161.4077,4095,4095
1784841161.4097,738,4095
1784841161.4117,689,4095
1784841161.4137,842,4095
1784841161.4158,784,4095
1784841161.4178,923,4095
1784841161.4198,1147,4095
1784841161.4219,1226,4095
1784841161.4238,1307,4095
1784841161.4258,1453,4095
1784841161.4278,4095,4095
1784841161.4297,4095,4095
1784841161.4317,4095,4095
1784841161.4336,4095,4095
1784841161.4363,4095,4095
1784841161.4389,4095,4095
1784841161.4416,4095,4095
1784841161.4442,4095,4095
1784841161.4469,688,4095
1784841161.4495,685,4095
1784841161.4510,693,4095
1784841161.4524,688,4095
1784841161.4539,692,4095
1784841161.4553,696,4095
1784841161.4567,689,4095
1784841161.4582,689,4095
1784841161.4602,692,4095
1784841161.4622,688,4095
1784841161.4642,1009,4095
1784841161.4662,1493,4095
1784841161.4682,1928,4095
1784841161.4702,2256,4095
1784841161.4722,2513,4095
1784841161.4741,2746,4095
1784841161.4761,2875,4095
1784841161.4780,3000,4095
1784841161.4800,3131,4095
1784841161.4820,3225,4095
1784841161.4839,3260,4095
1784841161.4858,3232,4095
1784841161.4878,3216,4095
1784841161.4897,3169,4095
1784841161.4917,3117,4095
1784841161.4936,3046,4095
1784841161.4956,2962,4095
1784841161.4976,2890,4095
1784841161.4996,2805,4095
1784841161.5016,2718,4095
1784841161.5036,2640,4095
1784841161.5056,2556,4095
1784841161.5078,2481,4095
1784841161.5099,2434,4095
1784841161.5121,2346,4095
1784841161.5143,2264,4095
1784841161.5164,2174,4095
1784841161.5276,2127,4095
1784841161.5277,2073,4095
1784841161.5278,2011,4095
1784841161.5279,1965,4095
1784841161.5281,1925,4095
1784841161.5282,1888,4095
1784841161.5301,1864,4095
1784841161.5321,1835,4095
1784841161.5340,1816,4095
1784841161.5360,1785,4095
1784841161.5379,1763,4095
1784841161.5399,1746,4095
1784841161.5419,1734,4095
1784841161.5440,1713,4095
1784841161.5460,1725,4095
1784841161.5481,1718,4095
1784841161.5501,1708,4095
1784841161.5522,1689,4095
1784841161.5541,1663,4095
1784841161.5560,1627,4094
1784841161.5579,1629,4083
1784841161.5598,1649,4078
1784841161.5617,1681,4066
1784841161.5636,1690,4047
1784841161.5660,1697,4026
1784841161.5684,1708,4012
1784841161.5707,1694,4005
1784841161.5731,1700,4021
1784841161.5755,1705,3977
1784841161.5778,1688,3958
1784841161.5795,1714,3962
1784841161.5812,1702,3903
1784841161.5829,1708,3926
1784841161.5845,1715,3950
1784841161.5862,1723,3943
1784841161.5882,1726,3900
1784841161.5902,1751,3887
1784841161.5922,1741,3909
1784841161.5942,1745,3861
1784841161.5962,1741,3854
1784841161.5982,1748,3831
1784841161.6002,1744,3841
1784841161.6021,1751,3816
1784841161.6041,1737,3810
1784841161.6060,1741,3806
1784841161.6080,1748,3791
1784841161.6099,1742,3736
1784841161.6119,1749,3779
1784841161.6139,1751,3775
1784841161.6158,1736,3757
1784841161.6178,1741,3742
1784841161.6197,1733,3779
1784841161.6217,1736,3717
1784841161.6237,1737,3714
1784841161.6257,1743,3700
1784841161.6276,1740,3694
1784841161.6296,1747,3682
1784841161.6316,1752,3678
1784841161.6336,1755,3666
1784841161.6358,1739,3657
1784841161.6380,1860,3650
1784841161.6401,1737,3645
1784841161.6423,1745,3634
1784841161.6445,1757,3598
1784841161.6556,1749,3617
1784841161.6557,1746,3585
1784841161.6559,1746,3560
1784841161.6561,1748,3602
1784841161.6562,1756,3575
1784841161.6564,1743,3569
1784841161.6583,1737,3601
1784841161.6602,1738,3539
1784841161.6621,1739,3518
1784841161.6641,1744,3536
1784841161.6660,1735,3527
1784841161.6679,1739,3509
1784841161.6699,1737,3504
1784841161.6719,1740,3518
1784841161.6739,1746,3500
1784841161.6759,1741,3490
1784841161.6779,1742,3482
1784841161.6799,1743,3475
1784841161.6824,1742,3465
1784841161.6850,1755,3481
1784841161.6875,1745,3490
1784841161.6901,1745,3448
1784841161.6926,1730,3443
1784841161.6952,1739,3442
1784841161.6964,1746,3426
1784841161.6976,1754,3422
1784841161.6988,1744,3416
1784841161.7000,1744,3380
1784841161.7012,1745,3407
1784841161.7024,1749,3378
1784841161.7048,1743,3391
1784841161.7071,1746,3377
1784841161.7095,1745,3382
1784841161.7118,1743,3385
1784841161.7142,1742,3364
1784841161.7162,1735,3386
1784841161.7182,1739,3349
1784841161.7202,1739,3337
1784841161.7222,1747,3334
1784841161.7242,1749,3328
1784841161.7262,1756,3316
1784841161.7281,1759,3351
1784841161.7301,1749,3313
1784841161.7320,1749,3328
1784841161.7340,1757,3309
1784841161.7359,1747,3296
1784841161.7379,1744,3290
1784841161.7399,1748,3284
1784841161.7419,1736,3279
1784841161.7438,1740,3318
1784841161.7458,1741,3265
1784841161.7478,1739,3216
1784841161.7498,1746,3258
1784841161.7518,1745,3266
1784841161.7539,1754,3246
1784841161.7559,1747,3238
1784841161.7579,1751,3239
1784841161.7600,1745,3226
1784841161.7620,1743,3224
1784841161.7641,1742,3231
1784841161.7662,1743,3211
1784841161.7683,1746,3208
1784841161.7704,1750,3189
1784841161.7724,1745,3200
1784841161.7836,1751,3190
1784841161.7837,1732,3188
1784841161.7838,1739,3176
1784841161.7839,1741,3171
1784841161.7841,1745,3169
1784841161.7842,1746,3198
1784841161.7861,1749,3155
1784841161.7881,1744,3196
1784841161.7900,1739,3143
1784841161.7920,1740,3162
1784841161.7940,1743,3135
1784841161.7959,1737,3128
1784841161.7979,1735,3132
1784841161.7999,1746,3121
1784841161.8019,1747,3094
1784841161.8039,1750,3111
1784841161.8059,1745,3112
1784841161.8079,1747,3107
1784841161.8106,1751,3099
1784841161.8133,1763,3106
1784841161.8160,1762,3085
1784841161.8187,1745,3083
1784841161.8215,1737,3069
1784841161.8242,1725,3073
1784841161.8252,1729,3065
1784841161.8263,1731,3064
1784841161.8273,1734,3057
1784841161.8284,1740,3049
1784841161.8294,1745,3047
1784841161.8305,1750,3062
1784841161.8328,1764,3017
1784841161.8351,1726,3032
1784841161.8375,1738,3026
1784841161.8398,1738,3073
1784841161.8422,1732,3027
1784841161.8442,1726,3011
1784841161.8461,1735,3008
1784841161.8481,1735,3001
1784841161.8501,1744,2988
1784841161.8521,1748,3009
1784841161.8541,1745,2992
1784841161.8561,1737,2985
1784841161.8581,1752,2985
1784841161.8601,1741,2978
1784841161.8621,1740,2972
1784841161.8642,1747,2971
1784841161.8662,1747,2958
1784841161.8681,1742,2969
1784841161.8700,1749,2964
1784841161.8719,1750,2962
1784841161.8738,1760,2950
1784841161.8757,1756,2943
1784841161.8776,1737,2942
1784841161.8796,1734,2938
1784841161.8817,1743,2930
1784841161.8837,1747,2924
1784841161.8857,1747,2912
1784841161.8877,1737,2914
1784841161.8897,1731,2916
1784841161.8919,1726,2910
1784841161.8940,1731,2907
1784841161.8961,1717,2902
1784841161.8983,1714,2890
1784841161.9004,1718,2896
1784841161.9116,1731,2880
1784841161.9117,1741,2877
1784841161.9118,1737,2897
1784841161.9119,1745,2877
1784841161.9120,1738,2875
1784841161.9121,1749,2881
1784841161.9141,1754,2866
1784841161.9160,1742,2856
1784841161.9180,1741,2852
1784841161.9199,1745,2853
1784841161.9219,1752,2854
1784841161.9238,1743,2847
1784841161.9258,1742,2847
1784841161.9278,1748,2827
1784841161.9298,1747,2812
1784841161.9318,1749,2843
1784841161.9338,1755,2830
1784841161.9358,1743,2824
1784841161.9385,1742,2824
1784841161.9411,1746,2818
1784841161.9437,1744,2810
1784841161.9464,1741,2811
1784841161.9490,1747,2790
1784841161.9516,1748,2799
1784841161.9528,1760,2798
1784841161.9539,1751,2804
1784841161.9550,1752,2795
1784841161.9562,1737,2796
1784841161.9573,1721,2773
1784841161.9585,1720,2781
1784841161.9609,1733,2750
1784841161.9634,1745,2773
1784841161.9658,1745,2767
1784841161.9682,1753,2762
1784841161.9707,1754,2793
1784841161.9727,1735,2770
1784841161.9746,1730,2756
1784841161.9766,1725,2746
1784841161.9786,1739,2750
1784841161.9805,1729,2748
1784841161.9825,1735,2742
1784841161.9844,1737,2740
1784841161.9863,1740,2737
1784841161.9882,1741,2740
1784841161.9901,1743,2733
1784841161.9920,1740,2738
1784841161.9938,1752,2721
1784841161.9958,1742,2714
1784841161.9977,1747,2718
1784841161.9997,1740,2711
1784841162.0016,1740,2714
1784841162.0036,1746,2703
1784841162.0055,1752,2706
1784841162.0075,1752,2736
1784841162.0095,1754,2695
1784841162.0115,1751,2700
1784841162.0135,1749,2686
1784841162.0155,1742,2690
1784841162.0175,1742,2684
1784841162.0197,1743,2681
1784841162.0219,1757,2677
1784841162.0240,1753,2672
1784841162.0262,1749,2677
1784841162.0284,1755,2670
1784841162.0395,1737,2656
1784841162.0397,1746,2675
1784841162.0398,1758,2659
1784841162.0399,1744,2656
1784841162.0400,1752,2668
1784841162.0402,1753,2648
1784841162.0421,1745,2667
1784841162.0441,1737,2631
1784841162.0460,1756,2644
1784841162.0480,1760,2636
1784841162.0499,1756,2635
1784841162.0519,1757,2645
1784841162.0539,1762,2630
1784841162.0559,1773,2616
1784841162.0579,1741,2617
1784841162.0599,1739,2629
1784841162.0619,1738,2602
1784841162.0639,1734,2616
1784841162.0660,1736,2612
1784841162.0681,1743,2607
1784841162.0702,1744,2594
1784841162.0723,1743,2613
1784841162.0744,1760,2602
1784841162.0765,1753,2594
1784841162.0782,1773,2586
1784841162.0798,1755,2595
1784841162.0815,1764,2570
1784841162.0831,1744,2580
1784841162.0848,1747,2576
1784841162.0865,1772,2572
1784841162.0888,1743,2559
1784841162.0912,1743,2571
1784841162.0935,1763,2558
1784841162.0959,1776,2558
1784841162.0983,1752,2559
1784841162.1002,1733,2550
1784841162.1022,1748,2559
1784841162.1042,1749,2551
1784841162.1061,1749,2550
1784841162.1081,1759,2577
1784841162.1101,1762,2543
1784841162.1131,1766,2552
1784841162.1161,1781,2534
1784841162.1191,1758,2538
1784841162.1221,1756,2532
1784841162.1251,1737,2529
1784841162.1281,1721,2530
1784841162.1290,1714,2525
1784841162.1299,1728,2525
1784841162.1308,1741,2513
1784841162.1317,1731,2518
1784841162.1326,1732,2530
1784841162.1335,1746,2531
1784841162.1355,1746,2523
1784841162.1375,1746,2517
1784841162.1396,1743,2503
1784841162.1416,1746,2496
1784841162.1436,1757,2501
1784841162.1456,1742,2516
1784841162.1478,1754,2491
1784841162.1499,1766,2495
1784841162.1521,1761,2499
1784841162.1542,1782,2498
1784841162.1563,1769,2487
1784841162.1675,1758,2481
1784841162.1676,1758,2475
1784841162.1677,1771,2478
1784841162.1678,1758,2476
1784841162.1679,1754,2469
1784841162.1680,1753,2465
1784841162.1700,1750,2464
1784841162.1720,1750,2467
1784841162.1740,1746,2482
1784841162.1760,1761,2460
1784841162.1780,1753,2450
1784841162.1800,1762,2454
1784841162.1820,1748,2455
1784841162.1839,1752,2452
1784841162.1859,1746,2458
1784841162.1878,1759,2450
1784841162.1898,1761,2446
1784841162.1917,1739,2447
1784841162.1937,1743,2441
1784841162.1957,1753,2441
1784841162.1976,1746,2461
1784841162.1996,1747,2436
1784841162.2016,1753,2436
1784841162.2035,1750,2433
1784841162.2053,1742,2426
1784841162.2072,1742,2427
1784841162.2090,1748,2417
1784841162.2108,1745,2423
1784841162.2126,1750,2429
1784841162.2144,1749,2415
1784841162.2168,1757,2410
1784841162.2191,1739,2418
1784841162.2215,1733,2414
1784841162.2238,1745,2409
1784841162.2262,1758,2408
1784841162.2282,1752,2409
1784841162.2302,1749,2401
1784841162.2322,1744,2407
1784841162.2342,1760,2432
1784841162.2362,1753,2397
1784841162.2382,1753,2390
1784841162.2406,1762,2379
1784841162.2430,1772,2395
1784841162.2454,1769,2389
1784841162.2478,1753,2380
1784841162.2502,1742,2378
1784841162.2526,1743,2375
1784841162.2541,1732,2377
1784841162.2556,1739,2382
1784841162.2571,1738,2376
1784841162.2586,1744,2363
1784841162.2602,1744,2372
1784841162.2617,1740,2359
1784841162.2637,1737,2364
1784841162.2656,1740,2361
1784841162.2676,1750,2359
1784841162.2696,1750,2360
1784841162.2716,1748,2363
1784841162.2736,1758,2354
1784841162.2758,1770,2354
1784841162.2780,1772,2350
1784841162.2802,1752,2352
1784841162.2824,1742,2339
1784841162.2846,1737,2343
1784841162.2956,1731,2342
1784841162.2957,1755,2334
1784841162.2958,1743,2364
1784841162.2959,1742,2345
1784841162.2960,1750,2332
1784841162.2961,1742,2334
1784841162.2981,1740,2331
1784841162.3001,1733,2328
1784841162.3020,1739,2331
1784841162.3040,1746,2332
1784841162.3059,1759,2335
1784841162.3079,1756,2320
1784841162.3099,1766,2338
1784841162.3119,1761,2314
1784841162.3139,1775,2310
1784841162.3158,1744,2318
1784841162.3178,1738,2326
1784841162.3198,1745,2317
1784841162.3218,1748,2305
1784841162.3238,1756,2310
1784841162.3257,1747,2302
1784841162.3277,1742,2313
1784841162.3297,1743,2298
1784841162.3316,1748,2308
1784841162.3334,1749,2299
1784841162.3353,1748,2296
1784841162.3371,1738,2288
1784841162.3389,1738,2295
1784841162.3407,1743,2252
1784841162.3425,1735,2287
1784841162.3448,1742,2329
1784841162.3471,1748,2287
1784841162.3495,1744,2274
1784841162.3518,1749,2289
1784841162.3541,1737,2269
1784841162.3561,1723,2282
1784841162.3581,1728,2277
1784841162.3601,1745,2268
1784841162.3621,1749,2276
1784841162.3642,1746,2271
1784841162.3662,1741,2269
1784841162.3686,1746,2268
1784841162.3710,1757,2270
1784841162.3735,1744,2272
1784841162.3759,1750,2262
1784841162.3783,1743,2258
1784841162.3807,1707,2253
1784841162.3823,1730,2297
1784841162.3839,1733,2255
1784841162.3855,1742,2248
1784841162.3870,1744,2252
1784841162.3886,1741,2252
1784841162.3902,1738,2243
1784841162.3921,1740,2259
1784841162.3940,1743,2242
1784841162.3959,1732,2245
1784841162.3978,1731,2244
1784841162.3997,1735,2237
1784841162.4016,1736,2240
1784841162.4037,1737,2232
1784841162.4059,1735,2233
1784841162.4081,1738,2241
1784841162.4103,1745,2232
1784841162.4124,1748,2237
1784841162.4236,1745,2228
1784841162.4237,1730,2228
1784841162.4238,1724,2226
1784841162.4239,1723,2234
1784841162.4241,1724,2224
1784841162.4242,1726,2221
1784841162.4262,1743,2222
1784841162.4281,1749,2221
1784841162.4301,1742,2218
1784841162.4320,1733,2223
1784841162.4340,1733,2217
1784841162.4360,1714,2207
1784841162.4380,1716,2209
1784841162.4400,1721,2206
1784841162.4420,1720,2207
1784841162.4440,1733,2205
1784841162.4460,1748,2201
1784841162.4480,1701,2205
1784841162.4499,1714,2199
1784841162.4519,1762,2210
1784841162.4538,1785,2167
1784841162.4558,1740,2193
1784841162.4577,1717,2197
1784841162.4597,1721,2196
1784841162.4615,1741,2191
1784841162.4633,1750,2187
1784841162.4651,1741,2193
1784841162.4669,1747,2156
1784841162.4687,1743,2188
1784841162.4705,1745,2218
1784841162.4729,1734,2181
1784841162.4752,1721,2183
1784841162.4775,1735,2182
1784841162.4799,1728,2183
1784841162.4822,1731,2179
1784841162.4842,1718,2181
1784841162.4863,1738,2173
1784841162.4883,1738,2178
1784841162.4903,1740,2172
1784841162.4924,1734,2176
1784841162.4944,1727,2225
1784841162.4963,1715,2224
1784841162.4982,1713,2226
1784841162.5001,1723,2224
1784841162.5020,1728,2218
1784841162.5039,1725,2213
1784841162.5059,1730,2214
1784841162.5078,1719,2216
1784841162.5098,1736,2232
1784841162.5117,1734,2225
1784841162.5137,1723,2267
1784841162.5156,1700,2265
1784841162.5176,1706,2264
1784841162.5196,1712,2262
1784841162.5217,1720,2260
1784841162.5237,1720,2259
1784841162.5257,1729,2256
1784841162.5278,1744,2259
1784841162.5298,1744,2243
1784841162.5319,1742,2259
1784841162.5341,1729,2314
1784841162.5362,1700,2302
1784841162.5383,1708,2303
1784841162.5405,1710,2302
1784841162.5544,1719,2301
1784841162.5545,1726,2299
1784841162.5546,1731,2302
1784841162.5547,1729,2294
1784841162.5549,1728,2288
1784841162.5550,1744,2306
1784841162.5565,1734,2355
1784841162.5581,1693,2345
1784841162.5596,1701,2351
1784841162.5611,1715,2346
1784841162.5626,1745,2342
1784841162.5642,1742,2342
1784841162.5661,1727,2344
1784841162.5680,1738,2337
1784841162.5700,1736,2340
1784841162.5719,1734,2348
1784841162.5738,1726,2399
1784841162.5758,1700,2396
1784841162.5777,1711,2393
1784841162.5797,1724,2396
1784841162.5817,1718,2392
1784841162.5836,1709,2384
1784841162.5856,1715,2383
1784841162.5876,1722,2386
1784841162.5909,1733,2378
1784841162.5942,1733,2381
1784841162.5975,2127,2443
1784841162.6008,1699,2434
1784841162.6041,1690,2436
1784841162.6074,1687,2427
1784841162.6080,1701,2419
1784841162.6085,1707,2419
1784841162.6091,1711,2418
1784841162.6096,1718,2425
1784841162.6102,1729,2425
1784841162.6122,1737,2425
1784841162.6141,1732,2464
1784841162.6161,1698,2460
1784841162.6181,1711,2420
1784841162.6201,1707,2445
1784841162.6221,1714,2448
1784841162.6240,1726,2455
1784841162.6260,1742,2447
1784841162.6279,1745,2444
1784841162.6299,1735,2439
1784841162.6318,1705,2447
1784841162.6338,1735,2465
1784841162.6358,1731,2456
1784841162.6378,1726,2460
1784841162.6398,1677,2459
1784841162.6418,1690,2458
1784841162.6438,1757,2424
1784841162.6457,1763,2452
1784841162.6477,1746,2449
1784841162.6497,1711,2445
1784841162.6516,1701,2448
1784841162.6536,1677,2447
1784841162.6556,1650,2442
1784841162.6575,1675,2439
1784841162.6597,1687,2458
1784841162.6619,1712,2437
1784841162.6640,1725,2434
1784841162.6662,1731,2429
1784841162.6684,1739,2427
1784841162.6799,1746,2421
1784841162.6800,1736,2441
1784841162.6801,1713,2469
1784841162.6802,1693,2463
1784841162.6802,1708,2465
1784841162.6803,1710,2461
1784841162.6823,1715,2453
1784841162.6842,1722,2436
1784841162.6861,1730,2446
1784841162.6880,1728,2448
1784841162.6899,1736,2448
1784841162.6918,1767,2450
1784841162.6939,1739,2487
1784841162.6959,1712,2485
1784841162.6979,1710,2481
1784841162.6999,1711,2486
1784841162.7019,1726,2510
1784841162.7039,1733,2475
1784841162.7059,1722,2474
1784841162.7078,1728,2474
1784841162.7097,1721,2461
1784841162.7117,1744,2471
1784841162.7136,1721,2474
1784841162.7155,1688,2477
1784841162.7181,1696,2472
1784841162.7206,1726,2493
1784841162.7232,1725,2469
1784841162.7257,1728,2471
1784841162.7282,1716,2470
1784841162.7308,1715,2465
1784841162.7322,1713,2458
1784841162.7337,1725,2466
1784841162.7352,1713,2483
1784841162.7366,1697,2479
1784841162.7381,1701,2480
1784841162.7401,1708,2477
1784841162.7421,1706,2473
1784841162.7441,1713,2475
1784841162.7462,1725,2464
1784841162.7482,1729,2466
1784841162.7502,1753,2463
1784841162.7522,1740,2464
1784841162.7542,1795,2495
1784841162.7562,1687,2490
1784841162.7582,1693,2497
1784841162.7602,1705,2489
1784841162.7622,1718,2485
1784841162.7641,1717,2483
1784841162.7660,1712,2480
1784841162.7680,1716,2478
1784841162.7699,1721,2440
1784841162.7719,1716,2476
1784841162.7738,2012,2495
1784841162.7758,1663,2505
1784841162.7778,1731,2505
1784841162.7798,1715,2502
1784841162.7818,1709,2503
1784841162.7838,1723,2493
1784841162.7858,1723,2497
1784841162.7883,1723,2477
1784841162.7908,1731,2486
1784841162.7933,1732,2489
1784841162.7958,1767,2489
1784841162.7984,1715,2482
1784841162.8076,1699,2481
1784841162.8078,1695,2497
1784841162.8081,1708,2483
1784841162.8083,1720,2471
1784841162.8086,1733,2466
1784841162.8088,1736,2468
1784841162.8107,1723,2464
1784841162.8125,1738,2474
1784841162.8144,1734,2449
1784841162.8163,1691,2456
1784841162.8181,1689,2455
1784841162.8200,1698,2449
1784841162.8220,1708,2444
1784841162.8240,1723,2447
1784841162.8260,1717,2443
1784841162.8280,1730,2444
1784841162.8300,1741,2441
1784841162.8320,1737,2441
1784841162.8340,1726,2456
1784841162.8359,1714,2460
1784841162.8379,1720,2446
1784841162.8399,1712,2448
1784841162.8418,1734,2444
1784841162.8438,1712,2441
1784841162.8456,1714,2448
1784841162.8474,1714,2445
1784841162.8492,1705,2435
1784841162.8510,1734,2441
1784841162.8528,1727,2429
1784841162.8545,1693,2427
1784841162.8569,1698,2425
1784841162.8592,1712,2431
1784841162.8616,1725,2419
1784841162.8639,1736,2416
1784841162.8662,1747,2412
1784841162.8682,1743,2416
1784841162.8702,1758,2391
1784841162.8722,1741,2407
1784841162.8742,1732,2409
1784841162.8762,2304,2411
1784841162.8782,1678,2413
1784841162.8802,1691,2408
1784841162.8821,1725,2402
1784841162.8841,1728,2395
1784841162.8861,1737,2392
1784841162.8881,1737,2389
1784841162.8901,1756,2385
1784841162.8920,1734,2404
1784841162.8939,1712,2385
1784841162.8959,1694,2379
1784841162.8978,1708,2379
1784841162.8998,1716,2379
1784841162.9017,1713,2371
1784841162.9038,1724,2381
1784841162.9058,1740,2371
1784841162.9079,1743,2372
1784841162.9100,1763,2363
1784841162.9121,1743,2372
1784841162.9141,1712,2364
1784841162.9162,1679,2358
1784841162.9183,1693,2359
1784841162.9204,1708,2361
1784841162.9226,1714,2358
1784841162.9247,1721,2352
1784841162.9356,1725,2345
1784841162.9357,1739,2349
1784841162.9358,1741,2351
1784841162.9359,1746,2358
1784841162.9361,1742,2341
1784841162.9362,1704,2345
1784841162.9394,1707,2341
1784841162.9427,1719,2335
1784841162.9459,1714,2332
1784841162.9491,1726,2313
1784841162.9524,1732,2333
1784841162.9556,1742,2331
1784841162.9563,1735,2323
1784841162.9570,1740,2324
1784841162.9577,1767,2316
1784841162.9584,1709,2318
1784841162.9592,1714,2325
1784841162.9599,1724,2322
1784841162.9618,1729,2319
1784841162.9638,1724,2316
1784841162.9658,1724,2307
1784841162.9678,1743,2312
1784841162.9698,1753,2307
1784841162.9718,1728,2313
1784841162.9736,1739,2306
1784841162.9754,1738,2304
1784841162.9772,1742,2299
1784841162.9790,1739,2296
1784841162.9808,1730,2296
1784841162.9826,1722,2298
1784841162.9850,1717,2284
1784841162.9873,1721,2295
1784841162.9897,1720,2290
1784841162.9921,1703,2296
1784841162.9944,1714,2287
1784841162.9964,1696,2284
1784841162.9984,1710,2282
1784841163.0004,1715,2283
1784841163.0024,1726,2278
1784841163.0043,1732,2271
1784841163.0063,1730,2271
1784841163.0083,1733,2271
1784841163.0104,1738,2274
1784841163.0124,1743,2275
1784841163.0144,1762,2269
1784841163.0165,1709,2267
1784841163.0185,1714,2258
1784841163.0204,1722,2271
1784841163.0223,1721,2259
1784841163.0241,1730,2257
1784841163.0260,1751,2262
1784841163.0279,1774,2224
1784841163.0298,1762,2250
1784841163.0318,1754,2256
1784841163.0339,2017,2251
1784841163.0359,1710,2226
1784841163.0380,1711,2247
1784841163.0400,1703,2249
1784841163.0420,1713,2243
1784841163.0441,1715,2244
1784841163.0463,1709,2236
1784841163.0484,1721,2235
1784841163.0505,1735,2230
1784841163.0526,1738,2246
1784841163.0637,1732,2211
1784841163.0638,1722,2225
1784841163.0640,1721,2233
1784841163.0641,1720,2228
1784841163.0643,1714,2233
1784841163.0644,1712,2229
1784841163.0675,1707,2225
1784841163.0706,1723,2225
1784841163.0737,1741,2218
1784841163.0767,1753,2230
1784841163.0798,1746,2217
1784841163.0829,1721,2224
1784841163.0838,1726,2230
1784841163.0846,1727,2219
1784841163.0855,1722,2214
1784841163.0863,1734,2216
1784841163.0872,1736,2216
1784841163.0880,1742,2212
1784841163.0900,1744,2209
1784841163.0919,1743,2210
1784841163.0939,1777,2225
1784841163.0958,1708,2225
1784841163.0978,1715,2224
1784841163.0998,1723,2220
1784841163.1016,1732,2220
1784841163.1034,1736,2215
1784841163.1052,1740,2210
1784841163.1070,1734,2215
1784841163.1089,1735,2217
1784841163.1107,1741,2224
1784841163.1130,1735,2230
1784841163.1154,1715,2232
1784841163.1178,1722,2225
1784841163.1202,1729,2217
1784841163.1226,1720,2220
1784841163.1245,1718,2216
1784841163.1265,1739,2220
1784841163.1284,1730,2214
1784841163.1304,1737,2217
1784841163.1324,1742,2217
1784841163.1343,1721,2221
1784841163.1362,1684,2224
1784841163.1382,1704,2228
1784841163.1401,1726,2224
1784841163.1420,1741,2223
1784841163.1440,1742,2220
1784841163.1459,1748,2217
1784841163.1479,1733,2220
1784841163.1498,1718,2209
1784841163.1518,1719,2220
1784841163.1538,1724,2230
1784841163.1558,1711,2228
1784841163.1577,1698,2228
1784841163.1598,1705,2225
1784841163.1618,1725,2225
1784841163.1638,1734,2223
1784841163.1658,1715,2218
1784841163.1678,1721,2219
1784841163.1698,1745,2216
1784841163.1719,1758,2224
1784841163.1741,1757,2263
1784841163.1762,1725,2252
1784841163.1784,1722,2255
1784841163.1805,1731,2253
1784841163.1916,1712,2253
1784841163.1917,1714,2254
1784841163.1918,1721,2248
1784841163.1920,1730,2248
1784841163.1921,1748,2249
1784841163.1922,1749,2247
1784841163.1941,1751,2275
1784841163.1961,1714,2266
1784841163.1980,1714,2269
1784841163.2000,1712,2263
1784841163.2019,1712,2270
1784841163.2039,1716,2267
1784841163.2069,1725,2259
1784841163.2099,1731,2259
1784841163.2130,1734,2262
1784841163.2160,1740,2265
1784841163.2190,1729,2283
1784841163.2220,1704,2276
1784841163.2230,1719,2280
1784841163.2239,1720,2276
1784841163.2248,1727,2279
1784841163.2257,1721,2274
1784841163.2266,1729,2270
1784841163.2275,1735,2269
1784841163.2294,1740,2270
1784841163.2312,1730,2298
1784841163.2330,1721,2286
1784841163.2348,1707,2283
1784841163.2366,1711,2282
1784841163.2384,1720,2279
1784841163.2408,1730,2279
1784841163.2431,1739,2275
1784841163.2455,1735,2298
1784841163.2479,1713,2278
1784841163.2502,1712,2269
1784841163.2523,1736,2280
1784841163.2543,1733,2307
1784841163.2563,1708,2303
1784841163.2584,1711,2305
1784841163.2604,1712,2303
1784841163.2624,1724,2300
1784841163.2644,1728,2299
1784841163.2663,1731,2295
1784841163.2682,1729,2291
1784841163.2701,1721,2290
1784841163.2721,1707,2288
1784841163.2740,2256,2287
1784841163.2760,1676,2290
1784841163.2779,1725,2282
1784841163.2799,1740,2277
1784841163.2819,1741,2280
1784841163.2838,1742,2281
1784841163.2858,1744,2283
1784841163.2888,1740,2263
1784841163.2918,1726,2276
1784841163.2948,1719,2281
1784841163.2978,1715,2289
1784841163.3007,1701,2286
1784841163.3037,1698,2291
1784841163.3047,1707,2284
1784841163.3056,1716,2250
1784841163.3066,1733,2284
1784841163.3075,1732,2283
1784841163.3084,1737,2274
1784841163.3196,1732,2276
1784841163.3197,1725,2314
1784841163.3198,1723,2294
1784841163.3200,1696,2291
1784841163.3201,1715,2288
1784841163.3202,1715,2289
1784841163.3222,1710,2327
1784841163.3243,1725,2243
1784841163.3263,1722,2303
1784841163.3283,1730,2279
1784841163.3304,1735,2282
1784841163.3324,1737,2283
1784841163.3344,1731,2295
1784841163.3363,1711,2286
1784841163.3383,1712,2292
1784841163.3403,1715,2297
1784841163.3423,1726,2294
1784841163.3442,1728,2290
1784841163.3462,1726,2284
1784841163.3481,1729,2282
1784841163.3500,1729,2284
1784841163.3519,1746,2258
1784841163.3539,1728,2292
1784841163.3558,1693,2296
1784841163.3576,1708,2292
1784841163.3594,1732,2289
1784841163.3613,1734,2285
1784841163.3631,1740,2288
1784841163.3649,1742,2288
1784841163.3667,1739,2283
1784841163.3690,1743,2281
1784841163.3713,1747,2290
1784841163.3736,1726,2296
1784841163.3759,1713,2295
1784841163.3782,1726,2288
1784841163.3802,1718,2289
1784841163.3822,1710,2283
1784841163.3843,1724,2290
1784841163.3863,1719,2286
1784841163.3884,1716,2284
1784841163.3904,1719,2282
1784841163.3923,1721,2292
1784841163.3943,1719,2266
1784841163.3962,1706,2273
1784841163.3982,1709,2273
1784841163.4001,1709,2270
1784841163.4020,1717,2273
1784841163.4040,1731,2301
1784841163.4060,1728,2268
1784841163.4079,1722,2263
1784841163.4099,1739,2263
1784841163.4118,1735,2272
1784841163.4138,1735,2284
1784841163.4164,1709,2284
1784841163.4191,1737,2278
1784841163.4217,1742,2279
1784841163.4244,1744,2236
1784841163.4271,1739,2272
1784841163.4297,1719,2312
1784841163.4312,1719,2269
1784841163.4326,1725,2262
1784841163.4340,1716,2274
1784841163.4354,1718,2266
1784841163.4369,1690,2257
1784841163.4476,1700,2266
1784841163.4477,1704,2256
1784841163.4479,1722,2254
1784841163.4480,1743,2254
1784841163.4481,1752,2252
1784841163.4483,1744,2220
1784841163.4502,1741,2252
1784841163.4522,1755,2257
1784841163.4542,1733,2283
1784841163.4561,1703,2282
1784841163.4581,1698,2284
1784841163.4601,1714,2275
1784841163.4620,1725,2282
1784841163.4640,1727,2279
1784841163.4660,1727,2274
1784841163.4680,1741,2274
1784841163.4700,1749,2274
1784841163.4720,1745,2278
1784841163.4740,1720,2267
1784841163.4759,1707,2265
1784841163.4779,1720,2262
1784841163.4799,1721,2261
1784841163.4818,1715,2259
1784841163.4838,1723,2257
1784841163.4856,1724,2247
1784841163.4874,1736,2251
1784841163.4892,1740,2265
1784841163.4910,1742,2261
1784841163.4929,1725,2263
1784841163.4947,1708,2255
1784841163.4980,1702,2258
1784841163.5014,1713,2254
1784841163.5048,1722,2242
1784841163.5081,1725,2248
1784841163.5115,1728,2250
1784841163.5126,1729,2241
1784841163.5137,1736,2243
1784841163.5149,1738,2244
1784841163.5160,1732,2259
1784841163.5171,1714,2255
1784841163.5182,1727,2251
1784841163.5202,1732,2261
1784841163.5222,1740,2244
1784841163.5242,1726,2241
1784841163.5262,1728,2220
1784841163.5281,1715,2241
1784841163.5301,1715,2239
1784841163.5321,1728,2248
1784841163.5342,1749,2256
1784841163.5362,1727,2254
1784841163.5382,1722,2254
1784841163.5402,1725,2251
1784841163.5422,1726,2252
1784841163.5441,1730,2231
1784841163.5461,1728,2244
1784841163.5480,1727,2254
1784841163.5499,1744,2243
1784841163.5519,1749,2255
1784841163.5538,1745,2253
1784841163.5560,1715,2254
1784841163.5581,1722,2243
1784841163.5603,1704,2242
1784841163.5625,1704,2245
1784841163.5646,1708,2240
1784841163.5756,1717,2240
1784841163.5757,1727,2241
1784841163.5759,1732,2239
1784841163.5761,1735,2266
1784841163.5762,1733,2239
1784841163.5764,1710,2232
1784841163.5787,1729,2237
1784841163.5810,1745,2224
1784841163.5833,1724,2228
1784841163.5856,1726,2229
1784841163.5879,1733,2226
1784841163.5902,1736,2224
1784841163.5919,1735,2252
1784841163.5935,1730,2234
1784841163.5951,1739,2241
1784841163.5967,1720,2239
1784841163.5984,1725,2241
1784841163.6000,1730,2238
1784841163.6020,1731,2253
1784841163.6039,1735,2238
1784841163.6059,1728,2233
1784841163.6078,1727,2225
1784841163.6098,1724,2229
1784841163.6118,1744,2232
1784841163.6136,1742,2249
1784841163.6154,1710,2242
1784841163.6171,1717,2237
1784841163.6189,1741,2240
1784841163.6207,1719,2198
1784841163.6225,1724,2235
1784841163.6249,1730,2217
1784841163.6272,1735,2232
1784841163.6295,1739,2234
1784841163.6318,1731,2205
1784841163.6342,1727,2241
1784841163.6362,1715,2243
1784841163.6383,1722,2240
1784841163.6404,1729,2223
1784841163.6425,1735,2229
1784841163.6446,1740,2221
1784841163.6467,1739,2232
1784841163.6497,1733,2224
1784841163.6527,1731,2217
1784841163.6557,1718,2238
1784841163.6587,1715,2243
1784841163.6616,1710,2245
1784841163.6646,1716,2241
1784841163.6657,1714,2231
1784841163.6667,1716,2235
1784841163.6677,1725,2236
1784841163.6687,1729,2198
1784841163.6697,1744,2230
1784841163.6707,1740,2226
1784841163.6726,1743,2233
1784841163.6744,1737,2248
1784841163.6762,1705,2259
1784841163.6781,1704,2254
1784841163.6799,1703,2248
1784841163.6817,1706,2221
1784841163.6839,1715,2281
1784841163.6860,1981,2241
1784841163.6882,1708,2242
1784841163.6903,1702,2238
1784841163.6925,1726,2255
1784841163.7036,1737,2254
1784841163.7037,1703,2267
1784841163.7038,1701,2257
1784841163.7039,1705,2257
1784841163.7041,1716,2256
1784841163.7042,1723,2245
1784841163.7062,1719,2250
1784841163.7081,1723,2245
1784841163.7101,1722,2246
1784841163.7121,1742,2246
1784841163.7141,1742,2261
1784841163.7160,1726,2260
1784841163.7180,1713,2259
1784841163.7200,1718,2218
1784841163.7219,1722,2291
1784841163.7239,1727,2255
1784841163.7259,1730,2254
1784841163.7279,1724,2247
1784841163.7310,1742,2248
1784841163.7342,1736,2256
1784841163.7373,1738,2273
1784841163.7404,1714,2271
1784841163.7436,1718,2271
1784841163.7467,1696,2265
1784841163.7474,1708,2262
1784841163.7480,1715,2260
1784841163.7487,1727,2273
1784841163.7493,1734,2258
1784841163.7500,1738,2256
1784841163.7506,1743,2269
1784841163.7529,1749,2293
1784841163.7553,1737,2280
1784841163.7576,1731,2322
1784841163.7599,1712,2287
1784841163.7622,1713,2280
1784841163.7642,1711,2281
1784841163.7663,1737,2277
1784841163.7683,1732,2280
1784841163.7703,1734,2265
1784841163.7723,1744,2276
1784841163.7743,1726,2288
1784841163.7762,1710,2277
1784841163.7782,1716,2265
1784841163.7801,1710,2277
1784841163.7821,1711,2277
1784841163.7840,1712,2262
1784841163.7860,1736,2275
1784841163.7879,1743,2275
1784841163.7899,1736,2268
1784841163.7919,1736,2274
1784841163.7938,1730,2290
1784841163.7958,1713,2290
1784841163.7978,1699,2280
1784841163.7998,1709,2286
1784841163.8018,1719,2279
1784841163.8038,1736,2292
1784841163.8058,1745,2279
1784841163.8078,1745,2251
1784841163.8098,1741,2260
1784841163.8126,1743,2274
1784841163.8153,1737,2289
1784841163.8180,1713,2286
1784841163.8207,1711,2285
1784841163.8234,1704,2286
1784841163.8316,1711,2278
1784841163.8317,1718,2281
1784841163.8319,1711,2279
1784841163.8320,1722,2278
1784841163.8321,1728,2274
1784841163.8323,1712,2278
1784841163.8342,1727,2272
1784841163.8362,1734,2234
1784841163.8382,1733,2267
1784841163.8402,1729,2238
1784841163.8421,1726,2257
1784841163.8441,1729,2262
1784841163.8461,1737,2254
1784841163.8481,1745,2260
1784841163.8501,1743,2244
1784841163.8521,1736,2263
1784841163.8541,1728,2325
1784841163.8561,1701,2281
1784841163.8580,1692,2286
1784841163.8599,1711,2281
1784841163.8618,1720,2278
1784841163.8638,1742,2283
1784841163.8657,1744,2278
1784841163.8676,1738,2276
1784841163.8706,1734,2256
1784841163.8736,1740,2275
1784841163.8766,1735,2273
1784841163.8796,2083,2295
1784841163.8826,1703,2292
1784841163.8856,1699,2288
1784841163.8865,1708,2289
1784841163.8874,1713,2286
1784841163.8883,1724,2284
1784841163.8892,1731,2285
1784841163.8902,1730,2285
1784841163.8921,1739,2303
1784841163.8941,1731,2309
1784841163.8961,1712,2292
1784841163.8981,1713,2294
1784841163.9001,1713,2281
1784841163.9021,1721,2289
1784841163.9041,1718,2296
1784841163.9061,1727,2285
1784841163.9081,1735,2281
1784841163.9100,1741,2285
1784841163.9120,1740,2290
1784841163.9140,1726,2295
1784841163.9159,1695,2310
1784841163.9179,1708,2280
1784841163.9198,1725,2290
1784841163.9218,1750,2287
1784841163.9237,1733,2287
1784841163.9257,1718,2266
1784841163.9277,1722,2281
1784841163.9297,1721,2274
1784841163.9317,1711,2287
1784841163.9337,1717,2272
1784841163.9358,1709,2276
1784841163.9378,1720,2269
1784841163.9403,1728,2268
1784841163.9427,1730,2297
1784841163.9452,1727,2259
1784841163.9477,1729,2258
1784841163.9502,1727,2259
1784841163.9596,1728,2277
1784841163.9598,1737,2266
1784841163.9601,1752,2286
1784841163.9603,1708,2288
1784841163.9605,1694,2291
1784841163.9608,1717,2290
1784841163.9626,1717,2284
1784841163.9645,1735,2284
1784841163.9664,1739,2287
1784841163.9683,1744,2280
1784841163.9701,1736,2283
1784841163.9720,1730,2274
1784841163.9740,1725,2270
1784841163.9760,1737,2268
1784841163.9780,2109,2275
1784841163.9800,1689,2295
1784841163.9819,1716,2296
1784841163.9839,1769,2319
1784841163.9859,1714,2315
1784841163.9879,1714,2286
1784841163.9898,1711,2304
1784841163.9918,1709,2298
1784841163.9938,1765,2286
1784841163.9958,1679,2281
1784841163.9987,1688,2268
1784841164.0016,1704,2279
1784841164.0045,1711,2277
1784841164.0075,1720,2277
1784841164.0104,1724,2273
1784841164.0133,1724,2270
1784841164.0143,1735,2271
1784841164.0152,1735,2280
1784841164.0162,1711,2292
1784841164.0171,1706,2288
1784841164.0181,1711,2290
1784841164.0201,1707,2281
1784841164.0221,1717,2285
1784841164.0242,1724,2278
1784841164.0262,1731,2310
1784841164.0282,1742,2280
1784841164.0302,1756,2278
1784841164.0322,1749,2282
1784841164.0341,1731,2308
1784841164.0361,1691,2308
1784841164.0380,1707,2302
1784841164.0400,1704,2297
1784841164.0419,1694,2298
1784841164.0439,1710,2259
1784841164.0458,1735,2291
1784841164.0478,1733,2288
1784841164.0497,1727,2290
1784841164.0517,1737,2300
1784841164.0536,1735,2308
1784841164.0557,1721,2304
1784841164.0578,1717,2303
1784841164.0599,1721,2333
1784841164.0620,1730,2301
1784841164.0641,2088,2304
1784841164.0662,1677,2321
1784841164.0690,1705,2319
1784841164.0718,1713,2341
1784841164.0746,1725,2323
1784841164.0774,1714,2313
1784841164.0802,1692,2309
1784841164.0876,1704,2309
1784841164.0877,1705,2312
1784841164.0879,1706,2309
1784841164.0880,1717,2302
1784841164.0881,1729,2301
1784841164.0883,1728,2300
1784841164.0902,1728,2296
1784841164.0922,1727,2309
1784841164.0941,1716,2356
1784841164.0961,1681,2360
1784841164.0980,1686,2355
1784841164.0999,1706,2317
1784841164.1019,1720,2348
1784841164.1039,1733,2358
1784841164.1059,1729,2342
1784841164.1079,1729,2357
1784841164.1099,1722,2337
1784841164.1119,1723,2342
1784841164.1139,1752,2341
1784841164.1158,1729,2358
1784841164.1177,1715,2328
1784841164.1197,1725,2328
1784841164.1216,1724,2328
1784841164.1235,1724,2323
1784841164.1253,1727,2325
1784841164.1272,1741,2323
1784841164.1290,1740,2314
1784841164.1308,1743,2328
1784841164.1326,1732,2309
1784841164.1344,1708,2313
1784841164.1367,1701,2310
1784841164.1391,1715,2306
1784841164.1414,1712,2306
1784841164.1437,1724,2288
1784841164.1461,1729,2299
1784841164.1481,1733,2298
1784841164.1501,1745,2300
1784841164.1521,1740,2311
1784841164.1541,1744,2317
1784841164.1561,1715,2320
1784841164.1581,1719,2312
1784841164.1601,1716,2309
1784841164.1621,1725,2309
1784841164.1641,1722,2308
1784841164.1661,1725,2302
1784841164.1681,1739,2300
1784841164.1702,1743,2303
1784841164.1720,1746,2321
1784841164.1739,1738,2314
1784841164.1758,1711,2320
1784841164.1777,1710,2316
1784841164.1796,1713,2287
1784841164.1815,1718,2312
1784841164.1835,1721,2313
1784841164.1855,1731,2311
1784841164.1876,1732,2302
1784841164.1896,1724,2308
1784841164.1916,1719,2312
1784841164.1936,1731,2319
1784841164.1958,1712,2325
1784841164.1979,1735,2314
1784841164.2001,1712,2316
1784841164.2023,1715,2313
1784841164.2044,1716,2307
1784841164.2169,1720,2303
1784841164.2170,1724,2304
1784841164.2171,1728,2303
1784841164.2172,1736,2306
1784841164.2174,1726,2314
1784841164.2175,1701,2319
1784841164.2192,1716,2309
1784841164.2209,1724,2306
1784841164.2226,1734,2306
1784841164.2244,1742,2301
1784841164.2261,1739,2301
1784841164.2278,1745,2304
1784841164.2298,1755,2302
1784841164.2319,1735,2305
1784841164.2339,1725,2320
1784841164.2359,1703,2313
1784841164.2379,1744,2336
1784841164.2400,1742,2313
1784841164.2419,1722,2310
1784841164.2438,1719,2317
1784841164.2458,1717,2306
1784841164.2477,1712,2305
1784841164.2497,1708,2299
1784841164.2516,1760,2387
1784841164.2534,1700,2380
1784841164.2553,1685,2381
1784841164.2571,1692,2370
1784841164.2589,1713,2376
1784841164.2607,1685,2369
1784841164.2625,1677,2367
1784841164.2661,1680,2367
1784841164.2697,1717,2362
1784841164.2733,1744,2367
1784841164.2770,1750,2369
1784841164.2806,1749,2357
1784841164.2815,1699,2327
1784841164.2824,1663,2353
1784841164.2833,1666,2351
1784841164.2842,1695,2346
1784841164.2852,1724,2345
1784841164.2861,1723,2341
1784841164.2881,1715,2342
1784841164.2900,1746,2339
1784841164.2920,1775,2326
1784841164.2940,1953,2376
1784841164.2960,1855,2375
1784841164.2979,1744,2367
1784841164.2999,1715,2365
1784841164.3018,1675,2354
1784841164.3038,1733,2358
1784841164.3057,1749,2357
1784841164.3077,1767,2357
1784841164.3096,1786,2345
1784841164.3116,1757,2366
1784841164.3136,1784,2350
1784841164.3156,1716,2347
1784841164.3176,1839,2343
1784841164.3196,1741,2400
1784841164.3216,1606,2341
1784841164.3238,1625,2337
1784841164.3259,1734,2337
1784841164.3281,1769,2337
1784841164.3302,1814,2340
1784841164.3324,1635,2337
1784841164.3437,1764,2333
1784841164.3439,1711,2323
1784841164.3440,1639,2333
1784841164.3441,1537,2325
1784841164.3442,1375,2326
1784841164.3443,1445,2322
1784841164.3462,1442,2309
1784841164.3481,1470,2317
1784841164.3501,1582,2317
1784841164.3520,1673,2321
1784841164.3539,1830,2314
1784841164.3558,1838,2272
1784841164.3578,1927,2310
1784841164.3598,1977,2305
1784841164.3618,1864,2302
1784841164.3638,1826,2299
1784841164.3658,1948,2300
1784841164.3678,1535,2301
1784841164.3699,1708,2299
1784841164.3719,1618,2308
1784841164.3740,1593,2293
1784841164.3761,1350,2296
1784841164.3781,1873,2258
1784841164.3802,1606,2287
1784841164.3819,1795,2289
1784841164.3837,1847,2284
1784841164.3854,1989,2287
1784841164.3871,1738,2277
1784841164.3889,1520,2280
1784841164.3906,1717,2284
1784841164.3943,2063,2512
1784841164.3980,2139,2506
1784841164.4016,2207,2504
1784841164.4053,2093,2500
1784841164.4090,1913,2491
1784841164.4099,1633,2492
1784841164.4107,1281,2477
1784841164.4116,1216,2484
1784841164.4125,1211,2481
1784841164.4133,1583,2494
1784841164.4142,1545,2478
1784841164.4162,1523,2480
1784841164.4181,2093,2467
1784841164.4201,1845,2468
1784841164.4221,2163,2469
1784841164.4240,2266,2434
1784841164.4260,2074,2460
1784841164.4279,1849,2461
1784841164.4299,1631,2486
1784841164.4318,1246,2457
1784841164.4338,1379,2443
1784841164.4357,1210,2441
1784841164.4376,1268,2449
1784841164.4397,1786,2443
1784841164.4417,1950,2447
1784841164.4437,2235,2440
1784841164.4457,1856,2438
1784841164.4477,1343,2443
1784841164.4497,1196,2432
1784841164.4518,1220,2444
1784841164.4540,1341,2416
1784841164.4561,1347,2430
1784841164.4583,1323,2422
1784841164.4605,1751,2418
1784841164.4762,1856,2433
1784841164.4764,2026,2423
1784841164.4765,1925,2415
1784841164.4767,2036,2411
1784841164.4768,2217,2409
1784841164.4770,1796,2410
1784841164.4782,1678,2405
1784841164.4795,1628,2405
1784841164.4808,1676,2402
1784841164.4820,1617,2399
1784841164.4833,1615,2398
1784841164.4846,1906,2397
1784841164.4865,2126,2386
1784841164.4884,2219,2428
1784841164.4903,2169,2387
1784841164.4922,2048,2394
1784841164.4941,2230,2505
1784841164.4960,2042,2509
1784841164.4979,1629,2497
1784841164.4999,1818,2502
1784841164.5018,1618,2492
1784841164.5037,1435,2484
1784841164.5057,1744,2489
1784841164.5076,1804,2460
1784841164.5095,1638,2485
1784841164.5113,1591,2491
1784841164.5131,1637,2490
1784841164.5149,1376,2471
1784841164.5168,1393,2474
1784841164.5186,1608,2467
1784841164.5209,1570,2464
1784841164.5233,1555,2462
1784841164.5257,1755,2465
1784841164.5280,1563,2458
1784841164.5304,1630,2457
1784841164.5324,1488,2459
1784841164.5343,1580,2452
1784841164.5363,1622,2447
1784841164.5383,1745,2446
1784841164.5403,1546,2445
1784841164.5422,1719,2447
1784841164.5442,1830,2439
1784841164.5461,1873,2433
1784841164.5481,1834,2434
1784841164.5501,1872,2439
1784841164.5520,1816,2450
1784841164.5540,1990,2424
1784841164.5559,1810,2431
1784841164.5579,1742,2427
1784841164.5599,1809,2423
1784841164.5618,1940,2415
1784841164.5638,1923,2418
1784841164.5657,1921,2412
1784841164.5678,2064,2414
1784841164.5698,2046,2413
1784841164.5718,1936,2408
1784841164.5739,1875,2409
1784841164.5759,1681,2404
1784841164.5779,1642,2400
1784841164.5801,1679,2396
1784841164.5823,1577,2404
1784841164.5845,1653,2390
1784841164.5867,1632,2384
1784841164.5889,1539,2388
1784841164.5996,1699,2389
1784841164.5998,1890,2392
1784841164.5999,1813,2386
1784841164.6001,1771,2381
1784841164.6002,1718,2375
1784841164.6004,1577,2380
1784841164.6029,1528,2372
1784841164.6054,1544,2366
1784841164.6079,1436,2338
1784841164.6104,1533,2370
1784841164.6128,1589,2366
1784841164.6153,1646,2370
1784841164.6168,2093,2368
1784841164.6182,1703,2359
1784841164.6196,1744,2356
1784841164.6210,1711,2361
1784841164.6225,1713,2326
1784841164.6239,1809,2349
1784841164.6259,1806,2349
1784841164.6278,1831,2350
1784841164.6298,1773,2349
1784841164.6318,1738,2352
1784841164.6338,1762,2342
1784841164.6358,1720,2336
1784841164.6376,1754,2336
1784841164.6394,1768,2329
1784841164.6412,1769,2333
1784841164.6430,1764,2329
1784841164.6448,1764,2325
1784841164.6466,1753,2328
1784841164.6489,1821,2287
1784841164.6513,1750,2331
1784841164.6536,1779,2318
1784841164.6559,1715,2323
1784841164.6582,1749,2319
1784841164.6621,1719,2310
1784841164.6660,1726,2315
1784841164.6699,1737,2312
1784841164.6738,1724,2311
1784841164.6777,1741,2313
1784841164.6816,1752,2305
1784841164.6818,1754,2313
1784841164.6819,1780,2301
1784841164.6820,1796,2298
1784841164.6821,1722,2297
1784841164.6823,1678,2300
1784841164.6824,1683,2292
1784841164.6843,1692,2287
1784841164.6863,1711,2288
1784841164.6883,1719,2291
1784841164.6903,1783,2303
1784841164.6922,1729,2286
1784841164.6942,1757,2287
1784841164.6961,1722,2272
1784841164.6980,1668,2283
1784841164.6999,1662,2294
1784841164.7018,1654,2311
1784841164.7037,1638,2275
1784841164.7056,1613,2271
1784841164.7078,1683,2272
1784841164.7100,1752,2271
1784841164.7122,1768,2268
1784841164.7144,1744,2260
1784841164.7166,1707,2264
1784841164.7276,1708,2260
1784841164.7278,1738,2261
1784841164.7279,1750,2267
1784841164.7281,1753,2254
1784841164.7282,1762,2253
1784841164.7283,1781,2255
1784841164.7303,1774,2249
1784841164.7323,1755,2265
1784841164.7342,1756,2246
1784841164.7362,1736,2243
1784841164.7382,1739,2248
1784841164.7401,1733,2248
1784841164.7434,1736,2238
1784841164.7468,1744,2246
1784841164.7501,1742,2240
1784841164.7534,1750,2237
1784841164.7567,1736,2233
1784841164.7600,1743,2251
1784841164.7606,1736,2235
1784841164.7612,1713,2230
1784841164.7619,1714,2228
1784841164.7625,1722,2228
1784841164.7631,1726,2221
1784841164.7637,1729,2228
1784841164.7655,1739,2223
1784841164.7673,1741,2225
1784841164.7691,1768,2220
1784841164.7709,1728,2215
1784841164.7727,1733,2239
1784841164.7745,1718,2229
1784841164.7768,1725,2230
1784841164.7792,1699,2226
1784841164.7815,1694,2228
1784841164.7838,1698,2261
1784841164.7862,1721,2225
1784841164.7883,1733,2225
1784841164.7904,1738,2227
1784841164.7925,1742,2224
1784841164.7946,1718,2247
1784841164.7967,1706,2238
1784841164.7988,1709,2235
1784841164.8007,1723,2236
1784841164.8026,1722,2232
1784841164.8045,1730,2233
1784841164.8064,1745,2222
1784841164.8083,1723,2232
1784841164.8102,1739,2231
1784841164.8121,1726,2234
1784841164.8141,1737,2251
1784841164.8160,1711,2246
1784841164.8179,1697,2244
1784841164.8198,1701,2238
1784841164.8217,1722,2239
1784841164.8241,1728,2240
1784841164.8265,1738,2225
1784841164.8289,1733,2230
1784841164.8313,1741,2235
1784841164.8337,1727,2237
1784841164.8361,1719,2270
1784841164.8378,1706,2270
1784841164.8395,1714,2264
1784841164.8412,1720,2270
1784841164.8428,1720,2263
1784841164.8445,1718,2235
1784841164.8556,1720,2258
1784841164.8557,1721,2257
1784841164.8559,1723,2257
1784841164.8560,1753,2261
1784841164.8561,1744,2313
1784841164.8562,1721,2311
1784841164.8582,1720,2310
1784841164.8601,1699,2310
1784841164.8621,1695,2306
1784841164.8640,1729,2303
1784841164.8660,1740,2303
1784841164.8679,1758,2297
1784841164.8700,1743,2294
1784841164.8720,1726,2293
1784841164.8740,1742,2292
1784841164.8761,1737,2291
1784841164.8781,2142,2343
1784841164.8801,1709,2337
1784841164.8821,1713,2334
1784841164.8840,1715,2322
1784841164.8859,1726,2326
1784841164.8879,1730,2330
1784841164.8898,1730,2320
1784841164.8918,1741,2326
1784841164.8936,1742,2349
1784841164.8955,1712,2354
1784841164.8974,1703,2345
1784841164.8992,1721,2342
1784841164.9011,1706,2338
1784841164.9030,1714,2342
1784841164.9057,1716,2338
1784841164.9084,1708,2297
1784841164.9110,1696,2333
1784841164.9137,1716,2328
1784841164.9164,1733,2350
1784841164.9181,1680,2354
1784841164.9197,1691,2343
1784841164.9214,1727,2349
1784841164.9230,1738,2349
1784841164.9246,1710,2338
1784841164.9263,1720,2340
1784841164.9282,1742,2335
1784841164.9302,1740,2329
1784841164.9321,1740,2334
1784841164.9340,1748,2378
1784841164.9359,1726,2376
1784841164.9379,1718,2372
1784841164.9398,1704,2376
1784841164.9418,1710,2361
1784841164.9438,1716,2366
1784841164.9458,1750,2361
1784841164.9478,1751,2357
1784841164.9498,1743,2360
1784841164.9518,1768,2365
1784841164.9537,1749,2415
1784841164.9557,1706,2413
1784841164.9577,1682,2410
1784841164.9596,1679,2411
1784841164.9616,1682,2405
1784841164.9650,1659,2402
1784841164.9684,1658,2397
1784841164.9717,1662,2398
1784841164.9751,1716,2391
1784841164.9785,1756,2397
1784841164.9836,1753,2417
1784841164.9837,1701,2415
1784841164.9838,1729,2414
1784841164.9840,1730,2396
1784841164.9841,1712,2408
1784841164.9842,1753,2412
1784841164.9862,1719,2407
1784841164.9881,1735,2395
1784841164.9901,1731,2395
1784841164.9920,1731,2406
1784841164.9940,1737,2394
1784841164.9959,1707,2400
1784841164.9980,1717,2395
1784841165.0000,1744,2388
1784841165.0021,1742,2386
1784841165.0041,1744,2381
1784841165.0062,1732,2379
1784841165.0082,1746,2373
1784841165.0102,1750,2376
1784841165.0121,1755,2373
1784841165.0140,1919,2397
1784841165.0159,1695,2400
1784841165.0178,1705,2390
1784841165.0197,1719,2388
1784841165.0216,1725,2390
1784841165.0234,1700,2384
1784841165.0252,1705,2383
1784841165.0270,1697,2382
1784841165.0289,1739,2379
1784841165.0307,1730,2379
1784841165.0330,1728,2401
1784841165.0353,1727,2401
1784841165.0376,1748,2390
1784841165.0399,1719,2392
1784841165.0423,1712,2383
1784841165.0447,1694,2385
1784841165.0471,1704,2390
1784841165.0495,1711,2383
1784841165.0520,1708,2353
1784841165.0544,1715,2384
1784841165.0568,1737,2409
1784841165.0584,1713,2416
1784841165.0600,1732,2407
1784841165.0615,1719,2409
1784841165.0631,1713,2406
1784841165.0646,1710,2405
1784841165.0662,1724,2400
1784841165.0681,1701,2395
1784841165.0700,1714,2397
1784841165.0719,1733,2394
1784841165.0739,1734,2428
1784841165.0758,1699,2422
1784841165.0777,1687,2421
1784841165.0797,1710,2418
1784841165.0817,1710,2420
1784841165.0838,1712,2419
1784841165.0858,1731,2411
1784841165.0878,1733,2413
1784841165.0898,1728,2401
1784841165.0920,1780,2416
1784841165.0941,1763,2437
1784841165.0962,1726,2439
1784841165.0983,1718,2431
1784841165.1005,1695,2429
1784841165.1116,1727,2430
1784841165.1118,1742,2425
1784841165.1120,1726,2423
1784841165.1122,1745,2416
1784841165.1124,1740,2421
1784841165.1126,1719,2426
1784841165.1145,1716,2411
1784841165.1163,1688,2407
1784841165.1182,1730,2405
1784841165.1201,1744,2409
1784841165.1220,1730,2400
1784841165.1239,1716,2400
1784841165.1259,1715,2399
1784841165.1279,1715,2396
1784841165.1299,1719,2395
1784841165.1319,1725,2403
1784841165.1339,1732,2407
1784841165.1359,1676,2406
1784841165.1379,1677,2405
1784841165.1399,1727,2407
1784841165.1418,1717,2397
1784841165.1438,1715,2399
1784841165.1458,1706,2394
1784841165.1477,1732,2395
1784841165.1495,1732,2389
1784841165.1513,1750,2396
1784841165.1531,1739,2441
1784841165.1550,1714,2430
1784841165.1568,1705,2432
1784841165.1586,1688,2425
1784841165.1609,1681,2417
1784841165.1633,1684,2423
1784841165.1657,1712,2415
1784841165.1680,1750,2419
1784841165.1704,1741,2411
1784841165.1724,1740,2427
1784841165.1743,1737,2421
1784841165.1763,1683,2420
1784841165.1783,1682,2420
1784841165.1803,1712,2421
1784841165.1823,1713,2414
1784841165.1842,1733,2413
1784841165.1862,1746,2412
1784841165.1881,1733,2409
1784841165.1901,1779,2406
1784841165.1920,1745,2403
1784841165.1940,1753,2400
1784841165.1980,1709,2402
1784841165.2020,1659,2399
1784841165.2060,1742,2398
1784841165.2100,1859,2395
1784841165.2140,1823,2389
1784841165.2180,1809,2385
1784841165.2182,1723,2382
1784841165.2184,1661,2384
1784841165.2186,1679,2383
1784841165.2188,2297,2393
1784841165.2190,1809,2383
1784841165.2192,1726,2376
1784841165.2211,1731,2372
1784841165.2229,1692,2368
1784841165.2248,1824,2371
1784841165.2266,1838,2370
1784841165.2285,1663,2362
1784841165.2396,1672,2364
1784841165.2397,1716,2370
1784841165.2398,1774,2408
1784841165.2399,1657,2412
1784841165.2401,1681,2406
1784841165.2402,1611,2401
1784841165.2422,1627,2404
1784841165.2441,1643,2398
1784841165.2461,1786,2393
1784841165.2481,1522,2392
1784841165.2500,1577,2391
1784841165.2520,1549,2403
1784841165.2540,1725,2389
1784841165.2560,1797,2385
1784841165.2580,1846,2385
1784841165.2599,1772,2382
1784841165.2619,1907,2379
1784841165.2639,2015,2379
1784841165.2662,1931,2375
1784841165.2684,1670,2368
1784841165.2707,1642,2367
1784841165.2729,1956,2373
1784841165.2752,2356,2712
1784841165.2774,1933,2704
1784841165.2789,1886,2701
1784841165.2804,1357,2702
1784841165.2819,1514,2691
1784841165.2834,1510,2687
1784841165.2849,4095,4095
1784841165.2864,4095,4095
1784841165.2886,4095,4095
1784841165.2908,3501,4095
1784841165.2930,689,4095
1784841165.2952,691,4095
1784841165.2974,703,4095
1784841165.2996,688,4095
1784841165.3016,686,4095
1784841165.3037,692,4095
1784841165.3057,690,4095
1784841165.3078,4095,4095
1784841165.3099,691,4095
1784841165.3119,4095,4095
1784841165.3145,692,4095
1784841165.3171,690,4095
1784841165.3196,690,4095
1784841165.3222,1354,4095
1784841165.3248,4095,4095
1784841165.3274,686,4095
1784841165.3292,686,4095
1784841165.3311,691,4095
1784841165.3329,688,4095
1784841165.3348,687,4095
1784841165.3366,688,4095
1784841165.3385,687,4095
1784841165.3403,690,4095
1784841165.3419,1096,4095
1784841165.3435,1694,4095
1784841165.3450,2163,4095
1784841165.3466,2384,4095
1784841165.3482,2594,4095
1784841165.3499,2796,4095
1784841165.3517,4095,4095
1784841165.3534,4095,4095
1784841165.3552,689,4095
1784841165.3569,690,4095
1784841165.3587,684,4095
1784841165.3604,691,4095
1784841165.3626,688,4095
1784841165.3648,689,4095
1784841165.3670,692,4095
1784841165.3692,690,4095
1784841165.3714,1230,4095
1784841165.3736,1535,4095
1784841165.3755,1734,4095
1784841165.3773,1752,4095
1784841165.3792,2002,4095
1784841165.3810,2004,4095
1784841165.3829,1962,4095
1784841165.3847,1949,4095
1784841165.3896,1851,4095
1784841165.3944,2097,4095
1784841165.3993,2206,4095
1784841165.4041,1963,4095
1784841165.4090,2373,4095
1784841165.4091,2498,4095
1784841165.4092,2438,4095
1784841165.4094,2533,4095
1784841165.4095,2498,4095
1784841165.4096,2550,4095
1784841165.4097,2478,4095
1784841165.4115,2320,4095
1784841165.4132,2294,4095
1784841165.4149,2323,4095
1784841165.4167,1962,4095
1784841165.4184,2093,4095
1784841165.4201,2564,4095
1784841165.4222,2487,4095
1784841165.4242,2177,4095
1784841165.4262,2074,4095
1784841165.4283,1841,4095
1784841165.4303,1720,4095
1784841165.4323,1714,4095
1784841165.4342,1723,4095
1784841165.4362,1618,4095
1784841165.4381,1623,4095
1784841165.4400,1863,4095
1784841165.4420,1917,4095
1784841165.4439,1758,4095
1784841165.4461,1973,4095
1784841165.4482,1891,4095
1784841165.4504,1971,4095
1784841165.4526,1990,4095
1784841165.4547,1888,4095
1784841165.4656,1898,4095
1784841165.4658,2114,4095
1784841165.4660,2095,4095
1784841165.4661,1794,4095
1784841165.4663,1606,4095
1784841165.4664,1378,4095
1784841165.4702,1475,4094
1784841165.4740,1502,4078
1784841165.4777,1599,4082
1784841165.4815,1422,4061
1784841165.4853,1467,4046
1784841165.4891,1422,4032
1784841165.4892,1512,4023
1784841165.4893,1469,4009
1784841165.4894,1628,4001
1784841165.4896,1695,3989
1784841165.4897,1637,3969
1784841165.4898,1765,3961
1784841165.4918,1758,3974
1784841165.4938,1821,3924
1784841165.4958,1838,3901
1784841165.4978,1908,3911
1784841165.4998,1870,3903
1784841165.5018,1759,3894
1784841165.5036,1790,3878
1784841165.5054,1815,3865
1784841165.5072,1817,3860
1784841165.5090,1809,3838
1784841165.5108,1801,3860
1784841165.5126,1816,3825
1784841165.5150,1747,3799
1784841165.5175,1779,3799
1784841165.5199,1803,3797
1784841165.5223,1779,3783
1784841165.5248,1764,3774
1784841165.5269,1764,3769
1784841165.5290,1778,3751
1784841165.5311,1818,3750
1784841165.5332,1808,3745
1784841165.5353,1794,3729
1784841165.5374,1669,3714
1784841165.5392,1675,3703
1784841165.5411,1675,3702
1784841165.5430,1725,3688
1784841165.5448,1752,3636
1784841165.5467,1774,3670
1784841165.5485,1730,3660
1784841165.5521,1754,3652
1784841165.5558,1703,3714
1784841165.5594,1722,3633
1784841165.5630,2075,3625
1784841165.5666,4095,4095
1784841165.5702,682,4095
1784841165.5706,688,4095
1784841165.5709,692,4095
1784841165.5713,691,4095
1784841165.5716,691,4095
1784841165.5720,685,4095
1784841165.5724,740,4095
1784841165.5744,837,4095
1784841165.5764,974,4095
1784841165.5784,1151,4095
1784841165.5805,1241,4095
1784841165.5825,1353,4095
1784841165.5845,1456,4095
1784841165.5865,1535,4095
1784841165.5884,1623,4095
1784841165.5904,1699,4095
1784841165.5923,1744,4095
1784841165.5943,1789,4095
1784841165.5962,1814,4095
1784841165.5984,1843,4095
1784841165.6005,1870,4095
1784841165.6026,1899,4095
1784841165.6048,1915,4095
1784841165.6069,1927,4095
1784841165.6090,1940,4095
1784841165.6109,1935,4095
1784841165.6127,1938,4095
1784841165.6145,1924,4095
1784841165.6163,1899,4095
1784841165.6181,1874,4095
1784841165.6200,1883,4095
1784841165.6219,1885,4095
1784841165.6238,1862,4095
1784841165.6256,1839,4095
1784841165.6275,1840,4095
1784841165.6294,1841,4095
1784841165.6313,1814,4095
1784841165.6354,1834,4095
1784841165.6395,1788,4095
1784841165.6436,1773,4095
1784841165.6477,1760,4095
1784841165.6518,1753,4095
1784841165.6522,1762,4095
1784841165.6527,1774,4095
1784841165.6531,1767,4095
1784841165.6536,1741,4095
1784841165.6541,1765,4095
1784841165.6545,1747,4095
1784841165.6565,1729,4095
1784841165.6585,1725,4095
1784841165.6605,1722,4095
1784841165.6625,1730,4095
1784841165.6644,1730,4095
1784841165.6664,1762,4095
1784841165.6683,1716,4095
1784841165.6703,1752,4091
1784841165.6722,1731,4094
1784841165.6741,1714,4093
1784841165.6760,1691,4075
1784841165.6779,1705,4079
1784841165.6802,1708,4041
1784841165.6824,1711,4036
1784841165.6847,1711,4026
1784841165.6869,1726,4007
1784841165.6892,1735,4000
1784841165.6914,1733,3982
1784841165.6933,1730,3987
1784841165.6952,1714,3954
1784841165.6970,1707,3948
1784841165.6989,1698,3944
1784841165.7007,1713,3932
1784841165.7117,1712,3919
1784841165.7119,1722,3904
1784841165.7120,1727,3896
1784841165.7122,1746,3883
1784841165.7123,1761,3867
1784841165.7125,1759,3871
1784841165.7164,1738,3838
1784841165.7203,1693,3842
1784841165.7243,1699,3826
1784841165.7282,1693,3815
1784841165.7321,1692,3804
1784841165.7360,1700,3801
1784841165.7361,1714,3785
1784841165.7363,1730,3775
1784841165.7364,1736,3758
1784841165.7365,1751,3769
1784841165.7366,1758,3746
1784841165.7368,1736,3731
1784841165.7386,1705,3728
1784841165.7405,1711,3714
1784841165.7423,1731,3705
1784841165.7442,1752,3703
1784841165.7460,1772,3687
1784841165.7479,1780,3678
1784841165.7498,1735,3669
1784841165.7518,1708,3679
1784841165.7537,1680,3662
1784841165.7557,1653,3639
1784841165.7577,1674,3632
1784841165.7596,1700,3625
1784841165.7618,1708,3615
1784841165.7640,1715,3611
1784841165.7662,1740,3597
1784841165.7684,1721,3585
1784841165.7706,1733,3576
1784841165.7726,1730,3590
1784841165.7746,1739,3560
1784841165.7766,1720,3559
1784841165.7785,1723,3546
1784841165.7805,1732,3542
1784841165.7825,1734,3537
1784841165.7844,1726,3518
1784841165.7864,1734,3510
1784841165.7883,1761,3508
1784841165.7903,1763,3498
1784841165.7922,1757,3509
1784841165.7941,1729,3495
1784841165.7961,1693,3473
1784841165.7981,1684,3479
1784841165.8001,1686,3467
1784841165.8021,1697,3460
1784841165.8041,1697,3446
1784841165.8061,1713,3441
1784841165.8103,1713,3437
1784841165.8145,1735,3427
1784841165.8187,1763,3437
1784841165.8229,1753,3415
1784841165.8271,1708,3411
1784841165.8313,1692,3404
1784841165.8315,1714,3399
1784841165.8317,1717,3388
1784841165.8319,1718,3386
1784841165.8320,1736,3380
1784841165.8322,1751,3372
1784841165.8397,1746,3368
1784841165.8398,1748,3388
1784841165.8400,1723,3363
1784841165.8401,1696,3347
1784841165.8403,1704,3344
1784841165.8405,1713,3335
1784841165.8424,1711,3330
1784841165.8443,1708,3321
1784841165.8463,1712,3320
1784841165.8482,1712,3311
1784841165.8502,1728,3306
1784841165.8521,1753,3297
1784841165.8542,1769,3295
1784841165.8563,2164,3284
1784841165.8585,1693,3282
1784841165.8606,1689,3278
1784841165.8627,1706,3268
1784841165.8648,1715,3262
1784841165.8667,1735,3259
1784841165.8686,1728,3251
1784841165.8705,1730,3248
1784841165.8725,1715,3266
1784841165.8744,1706,3241
1784841165.8763,1679,3233
1784841165.8780,1700,3223
1784841165.8798,1703,3218
1784841165.8815,1720,3213
1784841165.8833,1748,3207
1784841165.8850,1741,3202
1784841165.8868,1742,3207
1784841165.8891,1735,3188
1784841165.8914,1739,3204
1784841165.8937,1712,3183
1784841165.8961,1682,3180
1784841165.8984,1713,3178
1784841165.9021,1701,3172
1784841165.9059,1681,3164
1784841165.9096,1743,3156
1784841165.9133,1763,3151
1784841165.9171,1736,3145
1784841165.9208,1742,3143
1784841165.9210,1739,3144
1784841165.9213,1719,3133
1784841165.9215,1688,3125
1784841165.9217,1693,3112
1784841165.9220,1729,3124
1784841165.9222,1726,3108
1784841165.9242,1777,3109
1784841165.9261,1771,3105
1784841165.9281,1746,3097
1784841165.9300,1711,3083
1784841165.9320,1683,3105
1784841165.9339,1674,3081
1784841165.9359,1645,3084
1784841165.9379,1662,3065
1784841165.9399,1681,3060
1784841165.9419,1688,3059
1784841165.9438,1715,3055
1784841165.9458,1728,3053
1784841165.9480,1717,3043
1784841165.9503,1743,3042
1784841165.9525,1758,3054
1784841165.9547,1753,3030
1784841165.9569,1714,3026
1784841165.9676,1706,3026
1784841165.9680,1701,3019
1784841165.9683,1721,3010
1784841165.9686,1713,3007
1784841165.9689,1717,3008
1784841165.9693,1723,3005
1784841165.9711,1734,2996
1784841165.9730,1718,2998
1784841165.9748,1716,2990
1784841165.9767,1692,2987
1784841165.9785,1709,2983
1784841165.9804,1711,2980
1784841165.9824,1697,2968
1784841165.9843,1710,2967
1784841165.9863,1721,2964
1784841165.9882,1754,2960
1784841165.9902,1748,2954
1784841165.9921,1734,2956
1784841165.9948,1728,2945
1784841165.9974,1676,2944
1784841166.0001,1665,2937
1784841166.0027,1672,2934
1784841166.0054,1693,2929
1784841166.0080,1708,2926
1784841166.0091,1712,2922
1784841166.0102,1731,2914
1784841166.0112,1735,2912
1784841166.0123,1739,2923
1784841166.0134,1746,2902
1784841166.0145,1716,2900
1784841166.0168,1717,2891
1784841166.0192,1720,2892
1784841166.0215,1716,2890
1784841166.0239,1710,2889
1784841166.0262,1712,2881
1784841166.0282,1717,2876
1784841166.0302,1710,2870
1784841166.0322,1722,2869
1784841166.0342,2358,2869
1784841166.0362,1684,2865
1784841166.0381,1701,2862
1784841166.0401,1706,2855
1784841166.0421,1719,2850
1784841166.0441,1713,2850
1784841166.0461,1713,2841
1784841166.0481,1719,2840
1784841166.0500,1730,2832
1784841166.0530,1754,2840
1784841166.0561,1729,2819
1784841166.0591,1700,2826
1784841166.0621,1710,2822
1784841166.0651,1731,2818
1784841166.0681,1733,2809
1784841166.0690,1725,2814
1784841166.0699,1717,2804
1784841166.0708,1722,2798
1784841166.0718,1731,2799
1784841166.0727,1741,2819
1784841166.0736,1714,2792
1784841166.0757,1654,2784
1784841166.0779,1673,2783
1784841166.0801,1690,2776
1784841166.0822,1714,2775
1784841166.0844,1718,2771
1784841166.0956,1748,2769
1784841166.0958,1745,2765
1784841166.0959,1744,2765
1784841166.0960,1714,2764
1784841166.0961,1920,2758
1784841166.0963,1682,2755
1784841166.0982,1699,2747
1784841166.1001,1712,2759
1784841166.1021,1715,2740
1784841166.1040,1725,2739
1784841166.1059,1717,2737
1784841166.1078,1707,2730
1784841166.1098,1715,2729
1784841166.1118,1743,2735
1784841166.1138,1721,2721
1784841166.1158,1691,2725
1784841166.1179,1711,2716
1784841166.1199,1706,2715
1784841166.1235,1715,2709
1784841166.1271,1710,2667
1784841166.1307,1712,2698
1784841166.1343,1713,2698
1784841166.1379,1730,2693
1784841166.1415,1751,2702
1784841166.1416,1741,2692
1784841166.1417,1712,2685
1784841166.1418,1718,2686
1784841166.1420,1712,2682
1784841166.1421,1707,2676
1784841166.1422,1711,2672
1784841166.1446,1731,2674
1784841166.1470,1728,2668
1784841166.1494,1713,2666
1784841166.1519,1713,2671
1784841166.1543,1697,2657
1784841166.1563,1671,2658
1784841166.1583,1683,2650
1784841166.1603,1694,2646
1784841166.1623,1714,2646
1784841166.1643,1717,2642
1784841166.1663,1723,2639
1784841166.1683,1743,2635
1784841166.1703,1745,2637
1784841166.1724,1736,2642
1784841166.1744,1702,2627
1784841166.1765,1673,2584
1784841166.1785,1680,2630
1784841166.1804,1707,2620
1784841166.1822,1689,2612
1784841166.1841,1706,2616
1784841166.1860,1725,2615
1784841166.1879,1749,2604
1784841166.1898,1738,2608
1784841166.1918,1725,2607
1784841166.1938,1735,2605
1784841166.1957,1694,2597
1784841166.1977,1704,2599
1784841166.1997,1703,2593
1784841166.2017,1721,2588
1784841166.2039,1730,2589
1784841166.2061,1724,2564
1784841166.2082,1720,2559
1784841166.2104,1743,2578
1784841166.2125,1747,2563
1784841166.2298,1773,2559
1784841166.2308,1691,2558
1784841166.2317,1698,2559
1784841166.2327,1706,2554
1784841166.2336,1700,2557
1784841166.2346,1692,2552
1784841166.2348,1711,2551
1784841166.2350,1743,2550
1784841166.2352,1747,2546
1784841166.2354,1747,2552
1784841166.2356,1730,2537
1784841166.2358,1690,2540
1784841166.2378,1681,2533
1784841166.2399,1690,2540
1784841166.2419,1697,2529
1784841166.2439,1726,2531
1784841166.2460,1733,2521
1784841166.2480,1732,2516
1784841166.2499,1734,2518
1784841166.2519,1765,2548
1784841166.2538,1745,2538
1784841166.2557,1689,2547
1784841166.2577,1697,2548
1784841166.2596,1688,2541
1784841166.2614,1689,2535
1784841166.2633,1699,2539
1784841166.2651,1699,2534
1784841166.2669,1696,2531
1784841166.2687,1721,2525
1784841166.2705,1725,2499
1784841166.2729,1717,2519
1784841166.2752,1695,2520
1784841166.2776,1711,2514
1784841166.2799,1720,2511
1784841166.2823,1718,2511
1784841166.2843,1719,2513
1784841166.2863,1722,2509
1784841166.2882,1739,2508
1784841166.2902,1734,2498
1784841166.2922,1735,2513
1784841166.2942,1726,2487
1784841166.2968,1695,2496
1784841166.2994,1707,2507
1784841166.3020,1700,2484
1784841166.3046,1704,2485
1784841166.3072,1721,2484
1784841166.3097,1730,2479
1784841166.3111,1733,2480
1784841166.3124,1743,2482
1784841166.3137,1745,2479
1784841166.3150,1728,2461
1784841166.3164,1703,2482
1784841166.3177,1703,2487
1784841166.3197,1712,2477
1784841166.3217,1711,2481
1784841166.3238,1703,2476
1784841166.3258,1738,2474
1784841166.3278,1743,2465
1784841166.3298,1754,2464
1784841166.3320,1754,2477
1784841166.3341,1745,2476
1784841166.3363,1704,2488
1784841166.3384,1717,2483
1784841166.3405,1704,2477
1784841166.3516,1696,2479
1784841166.3518,1685,2464
1784841166.3519,1701,2469
1784841166.3521,1703,2468
1784841166.3522,1711,2471
1784841166.3524,1721,2462
1784841166.3543,1721,2467
1784841166.3562,1693,2457
1784841166.3581,1706,2456
1784841166.3600,1706,2449
1784841166.3620,1757,2452
1784841166.3639,1744,2450
1784841166.3663,1727,2443
1784841166.3687,1718,2441
1784841166.3711,1717,2440
1784841166.3735,1742,2452
1784841166.3759,1706,2461
1784841166.3783,1674,2455
1784841166.3799,1683,2462
1784841166.3815,1741,2451
1784841166.3831,1735,2451
1784841166.3847,1726,2447
1784841166.3863,1737,2441
1784841166.3879,1743,2438
1784841166.3897,1731,2434
1784841166.3914,1721,2436
1784841166.3932,1752,2448
1784841166.3949,1686,2446
1784841166.3967,1689,2444
1784841166.3984,1704,2436
1784841166.4008,1711,2437
1784841166.4032,1725,2436
1784841166.4055,1729,2436
1784841166.4079,1731,2427
1784841166.4103,1736,2426
1784841166.4123,1738,2429
1784841166.4143,1720,2449
1784841166.4163,1698,2451
1784841166.4182,1712,2451
1784841166.4202,1718,2446
1784841166.4222,1720,2444
1784841166.4242,1722,2442
1784841166.4261,1752,2433
1784841166.4281,1741,2433
1784841166.4301,1729,2434
1784841166.4320,1705,2433
1784841166.4340,1713,2414
1784841166.4374,1667,2421
1784841166.4407,1709,2422
1784841166.4441,1705,2421
1784841166.4475,1708,2420
1784841166.4509,1718,2419
1784841166.4543,1732,2387
1784841166.4548,1729,2416
1784841166.4554,1739,2413
1784841166.4559,1752,2417
1784841166.4564,1770,2487
1784841166.4570,1727,2480
1784841166.4575,1710,2487
1784841166.4597,1703,2477
1784841166.4619,1682,2475
1784841166.4641,1697,2476
1784841166.4662,1712,2465
1784841166.4684,1735,2470
1784841166.4796,1759,2460
1784841166.4797,1745,2467
1784841166.4798,1731,2482
1784841166.4799,1686,2470
1784841166.4800,1708,2477
1784841166.4802,1705,2471
1784841166.4822,1708,2467
1784841166.4842,1712,2425
1784841166.4863,1722,2463
1784841166.4883,1740,2463
1784841166.4904,1746,2455
1784841166.4924,1739,2490
1784841166.4943,1735,2477
1784841166.4963,1709,2478
1784841166.4982,1714,2480
1784841166.5001,1712,2474
1784841166.5020,1697,2468
1784841166.5040,1704,2463
1784841166.5059,1700,2465
1784841166.5079,1714,2471
1784841166.5098,1729,2458
1784841166.5118,1771,2464
1784841166.5138,1738,2513
1784841166.5157,1691,2505
1784841166.5183,1680,2507
1784841166.5209,1685,2504
1784841166.5235,1690,2501
1784841166.5260,1691,2500
1784841166.5286,1705,2494
1784841166.5312,1743,2494
1784841166.5326,1732,2492
1784841166.5340,1736,2492
1784841166.5354,1722,2482
1784841166.5368,1680,2482
1784841166.5382,1687,2478
1784841166.5402,1721,2475
1784841166.5422,1721,2480
1784841166.5442,1740,2470
1784841166.5462,1733,2469
1784841166.5482,1730,2467
1784841166.5502,1755,2464
1784841166.5522,1743,2457
1784841166.5542,1838,2492
1784841166.5562,1688,2485
1784841166.5581,1692,2485
1784841166.5601,1698,2485
1784841166.5621,1708,2482
1784841166.5640,1717,2477
1784841166.5660,1714,2472
1784841166.5679,1733,2472
1784841166.5698,1744,2472
1784841166.5718,1750,2472
1784841166.5737,1753,2497
1784841166.5770,1717,2494
1784841166.5802,1721,2500
1784841166.5835,1709,2495
1784841166.5868,1696,2490
1784841166.5901,1688,2484
1784841166.5934,1680,2483
1784841166.5940,1696,2483
1784841166.5946,1711,2477
1784841166.5952,1718,2484
1784841166.5958,1721,2491
1784841166.5964,1693,2485
1784841166.6075,1706,2484
1784841166.6076,1699,2480
1784841166.6078,1716,2479
1784841166.6079,1741,2478
1784841166.6080,1746,2474
1784841166.6081,1747,2476
1784841166.6101,1742,2473
1784841166.6121,1729,2469
1784841166.6141,1702,2481
1784841166.6161,1664,2470
1784841166.6181,1684,2481
1784841166.6202,1707,2477
1784841166.6221,1714,2476
1784841166.6241,1713,2464
1784841166.6260,1728,2470
1784841166.6280,1731,2468
1784841166.6300,1733,2464
1784841166.6319,1736,2475
1784841166.6339,1701,2495
1784841166.6358,1687,2495
1784841166.6378,1704,2500
1784841166.6397,1719,2487
1784841166.6416,1730,2487
1784841166.6436,1730,2482
1784841166.6463,1720,2481
1784841166.6491,1726,2478
1784841166.6518,1730,2475
1784841166.6545,1737,2481
1784841166.6573,1736,2508
1784841166.6600,1694,2504
1784841166.6612,1705,2505
1784841166.6624,1703,2502
1784841166.6636,1721,2494
1784841166.6649,1734,2497
1784841166.6661,1735,2492
1784841166.6681,1745,2491
1784841166.6701,1748,2483
1784841166.6721,1733,2501
1784841166.6741,1711,2507
1784841166.6761,1679,2501
1784841166.6781,1683,2502
1784841166.6800,1700,2497
1784841166.6820,1712,2495
1784841166.6840,1720,2493
1784841166.6859,1722,2491
1784841166.6879,1719,2487
1784841166.6899,1712,2490
1784841166.6919,1720,2480
1784841166.6938,1778,2504
1784841166.6958,1694,2501
1784841166.6978,1687,2497
1784841166.6998,1680,2497
1784841166.7018,1702,2485
1784841166.7037,1724,2490
1784841166.7057,1749,2488
1784841166.7076,1748,2484
1784841166.7096,1753,2482
1784841166.7115,1742,2484
1784841166.7135,1715,2512
1784841166.7156,1682,2505
1784841166.7178,1709,2506
1784841166.7200,1724,2500
1784841166.7222,1714,2503
1784841166.7244,1704,2494
1784841166.7369,1717,2494
1784841166.7370,1727,2491
1784841166.7371,1721,2488
1784841166.7372,1721,2451
1784841166.7373,1711,2523
1784841166.7374,1694,2495
1784841166.7391,1694,2493
1784841166.7409,1707,2498
1784841166.7426,1719,2488
1784841166.7443,1723,2486
1784841166.7460,1741,2481
1784841166.7477,1742,2484
1784841166.7498,1762,2478
1784841166.7518,1784,2481
1784841166.7538,1771,2530
1784841166.7558,1667,2523
1784841166.7579,1663,2527
1784841166.7599,1670,2520
1784841166.7618,1687,2517
1784841166.7638,1709,2518
1784841166.7657,1704,2516
1784841166.7677,1732,2514
1784841166.7696,1737,2511
1784841166.7716,1747,2504
1784841166.7734,2535,2537
1784841166.7752,1666,2531
1784841166.7770,1703,2522
1784841166.7788,1709,2522
1784841166.7806,1706,2523
1784841166.7825,1700,2516
1784841166.7871,1702,2515
1784841166.7918,1729,2515
1784841166.7965,1741,2512
1784841166.8012,1734,2517
1784841166.8059,1722,2530
1784841166.8061,1702,2521
1784841166.8063,1709,2523
1784841166.8065,1710,2519
1784841166.8067,1715,2517
1784841166.8069,1718,2512
1784841166.8071,1718,2514
1784841166.8089,1720,2507
1784841166.8107,1722,2503
1784841166.8125,1736,2502
1784841166.8144,1746,2530
1784841166.8162,1679,2523
1784841166.8180,1683,2525
1784841166.8200,1702,2523
1784841166.8219,1711,2519
1784841166.8239,1719,2517
1784841166.8259,1726,2513
1784841166.8279,1730,2514
1784841166.8298,1727,2504
1784841166.8318,1745,2511
1784841166.8338,1725,2544
1784841166.8358,1692,2539
1784841166.8378,1706,2537
1784841166.8398,1700,2533
1784841166.8417,1698,2524
1784841166.8439,1690,2523
1784841166.8460,1698,2522
1784841166.8482,1697,2521
1784841166.8503,1707,2513
1784841166.8524,1721,2518
1784841166.8636,1718,2531
1784841166.8637,1681,2529
1784841166.8638,1693,2530
1784841166.8639,1708,2521
1784841166.8641,1725,2517
1784841166.8642,1738,2521
1784841166.8669,1744,2520
1784841166.8696,1739,2514
1784841166.8722,1742,2509
1784841166.8749,1747,2509
1784841166.8776,1743,2511
1784841166.8803,2502,2546
1784841166.8816,1678,2540
1784841166.8829,1710,2551
1784841166.8842,1705,2534
1784841166.8854,1709,2535
1784841166.8867,1728,2526
1784841166.8880,1721,2525
1784841166.8900,1712,2522
1784841166.8919,1725,2532
1784841166.8939,1718,2535
1784841166.8958,1687,2529
1784841166.8978,1695,2521
1784841166.8998,1711,2517
1784841166.9016,1717,2516
1784841166.9035,1748,2508
1784841166.9054,1742,2512
1784841166.9073,1735,2510
1784841166.9092,1733,2510
1784841166.9111,1731,2511
1784841166.9133,1694,2517
1784841166.9156,1664,2516
1784841166.9178,1677,2520
1784841166.9200,1680,2519
1784841166.9223,1694,2516
1784841166.9243,1698,2511
1784841166.9263,1703,2510
1784841166.9282,1699,2503
1784841166.9302,1717,2507
1784841166.9322,1735,2513
1784841166.9342,1739,2520
1784841166.9362,1719,2523
1784841166.9382,1709,2515
1784841166.9401,1680,2516
1784841166.9421,1707,2516
1784841166.9440,1716,2513
1784841166.9460,1722,2511
1784841166.9489,1733,2507
1784841166.9518,1740,2502
1784841166.9548,1747,2499
1784841166.9577,1782,2535
1784841166.9606,1707,2532
1784841166.9635,1717,2534
1784841166.9646,1727,2528
1784841166.9656,1712,2524
1784841166.9667,1711,2520
1784841166.9677,1697,2514
1784841166.9688,1714,2526
1784841166.9698,1721,2511
1784841166.9720,1748,2512
1784841166.9741,1757,2545
1784841166.9763,1708,2543
1784841166.9784,1710,2538
1784841166.9805,1704,2540
1784841166.9917,1703,2537
1784841166.9918,1709,2531
1784841166.9920,1716,2530
1784841166.9921,1725,2525
1784841166.9923,1721,2522
1784841166.9925,1733,2528
1784841166.9944,1717,2516
1784841166.9963,1690,2529
1784841166.9982,1661,2529
1784841167.0001,1683,2513
1784841167.0020,1710,2520
1784841167.0039,1716,2519
1784841167.0059,1746,2514
1784841167.0080,1761,2515
1784841167.0100,1747,2508
1784841167.0121,1738,2505
1784841167.0141,2464,2546
1784841167.0162,1674,2542
1784841167.0181,1704,2538
1784841167.0200,1711,2528
1784841167.0219,1683,2538
1784841167.0237,1702,2533
1784841167.0256,1709,2525
1784841167.0275,1690,2527
1784841167.0294,1705,2517
1784841167.0312,1742,2528
1784841167.0330,1715,2541
1784841167.0349,1696,2546
1784841167.0367,1727,2538
1784841167.0385,1710,2537
1784841167.0409,1674,2533
1784841167.0433,1720,2529
1784841167.0456,1773,2527
1784841167.0480,1762,2527
1784841167.0504,1811,2522
1784841167.0524,1885,2514
1784841167.0544,2641,2648
1784841167.0564,1707,2647
1784841167.0583,1818,2634
1784841167.0603,1779,2635
1784841167.0623,1732,2627
1784841167.0643,1618,2627
1784841167.0662,1564,2614
1784841167.0682,1565,2618
1784841167.0701,1613,2615
1784841167.0721,1641,2612
1784841167.0740,1871,2614
1784841167.0760,1499,2610
1784841167.0780,1484,2605
1784841167.0799,1618,2600
1784841167.0819,1702,2600
1784841167.0839,1836,2591
1784841167.0858,1789,2593
1784841167.0885,1789,2591
1784841167.0912,1805,2585
1784841167.0940,1807,2584
1784841167.0967,2527,2591
1784841167.0994,1708,2567
1784841167.1021,1769,2564
1784841167.1034,1716,2559
1784841167.1047,1702,2553
1784841167.1060,1776,2558
1784841167.1072,1851,2558
1784841167.1085,1814,2553
1784841167.1196,1804,2548
1784841167.1198,1929,2593
1784841167.1201,1883,2547
1784841167.1203,2314,2542
1784841167.1206,1503,2536
1784841167.1208,1543,2536
1784841167.1227,1463,2533
1784841167.1245,1539,2524
1784841167.1264,1665,2524
1784841167.1282,1464,2527
1784841167.1301,1594,2518
1784841167.1320,1645,2522
1784841167.1340,1772,2520
1784841167.1360,1940,2518
1784841167.1380,1793,2516
1784841167.1401,1636,2510
1784841167.1421,1734,2511
1784841167.1441,1771,2507
1784841167.1464,1848,2504
1784841167.1487,1792,2503
1784841167.1510,2147,2623
1784841167.1534,1727,2693
1784841167.1557,4095,4095
1784841167.1580,699,4095
1784841167.1603,698,4095
1784841167.1625,692,4095
1784841167.1648,1603,4095
1784841167.1671,689,4095
1784841167.1693,691,4095
1784841167.1716,737,4095
1784841167.1730,1181,4095
1784841167.1745,2299,4095
1784841167.1759,768,4095
1784841167.1773,698,4095
1784841167.1788,691,4095
1784841167.1802,690,4095
1784841167.1822,690,4095
1784841167.1842,1122,4095
1784841167.1862,1774,4095
1784841167.1882,1925,4095
1784841167.1902,1772,4095
1784841167.1922,1690,4095
1784841167.1942,4095,4095
1784841167.1961,4095,4095
1784841167.1981,4095,4095
1784841167.2001,4095,4095
1784841167.2020,4095,4095
1784841167.2040,4095,4095
1784841167.2060,693,4095
1784841167.2081,690,4095
1784841167.2101,687,4095
1784841167.2121,687,4095
1784841167.2142,688,4095
1784841167.2162,689,4095
1784841167.2291,684,4095
1784841167.2293,694,4095
1784841167.2295,2153,4095
1784841167.2296,1306,4095
1784841167.2298,697,4095
1784841167.2300,689,4095
1784841167.2301,690,4095
1784841167.2319,688,4095
1784841167.2336,1257,4095
1784841167.2353,1039,4095
1784841167.2370,1566,4095
1784841167.2388,1860,4095
1784841167.2405,2145,4095
1784841167.2438,2743,4095
1784841167.2471,2876,4095
1784841167.2504,2775,4095
1784841167.2537,2692,4095
1784841167.2570,3090,4095
1784841167.2581,3099,4095
1784841167.2593,2649,4095
1784841167.2605,2704,4095
1784841167.2617,2413,4095
1784841167.2629,2389,4095
1784841167.2641,2356,4095
1784841167.2660,2411,4095
1784841167.2680,2388,4095
1784841167.2700,2322,4095
1784841167.2719,2116,4095
1784841167.2739,2160,4095
1784841167.2758,1804,4095
1784841167.2778,1723,4095
1784841167.2798,1901,4095
1784841167.2818,2036,4095
1784841167.2837,1966,4095
1784841167.2857,2002,4095
1784841167.2877,2030,4095
1784841167.2897,2231,4095
1784841167.2917,2287,4095
1784841167.2937,2168,4095
1784841167.2957,1999,4095
1784841167.2977,1828,4095
1784841167.2997,1669,4095
1784841167.3019,1893,4095
1784841167.3041,2076,4095
1784841167.3063,2042,4095
1784841167.3084,1940,4095
1784841167.3106,1773,4095
1784841167.3245,1829,4095
1784841167.3246,1867,4095
1784841167.3248,1796,4095
1784841167.3249,1741,4095
1784841167.3250,1798,4095
1784841167.3252,1786,4095
1784841167.3267,1810,4095
1784841167.3282,1923,4095
1784841167.3298,1672,4095
1784841167.3313,1801,4095
1784841167.3328,1893,4095
1784841167.3344,1740,4095
1784841167.3363,1936,4086
1784841167.3382,1968,4088
1784841167.3401,2150,4074
1784841167.3420,2097,4051
1784841167.3439,1949,4044
1784841167.3458,1580,4032
1784841167.3478,1489,4019
1784841167.3498,1580,4027
1784841167.3518,1570,4018
1784841167.3538,1265,3978
1784841167.3558,1170,3967
1784841167.3577,1396,3959
1784841167.3595,1485,3945
1784841167.3613,1565,3895
1784841167.3631,1543,3920
1784841167.3649,1545,3904
1784841167.3667,1424,3898
1784841167.3685,1457,3888
1784841167.3708,1444,3907
1784841167.3731,1476,3871
1784841167.3755,1506,3858
1784841167.3778,1728,3842
1784841167.3801,1682,3828
1784841167.3839,1709,3816
1784841167.3876,1892,3802
1784841167.3914,1944,3801
1784841167.3951,1976,3789
1784841167.3989,1820,3778
1784841167.4026,1877,3787
1784841167.4028,1832,3762
1784841167.4030,1805,3753
1784841167.4032,1836,3737
1784841167.4033,1766,3726
1784841167.4035,1905,3725
1784841167.4037,1786,3709
1784841167.4057,1798,3712
1784841167.4077,1857,3695
1784841167.4097,1875,3683
1784841167.4117,1731,3701
1784841167.4137,1741,3634
1784841167.4157,1724,3657
1784841167.4177,1777,3650
1784841167.4196,1821,3642
1784841167.4216,1733,3632
1784841167.4236,1711,3625
1784841167.4256,1755,3604
1784841167.4275,1684,3603
1784841167.4297,1744,3592
1784841167.4319,2458,3603
1784841167.4341,1848,3570
1784841167.4363,4095,4095
1784841167.4385,4095,4095
1784841167.4496,4095,4095
1784841167.4497,4095,4095
1784841167.4498,695,4095
1784841167.4499,4095,4095
1784841167.4500,4095,4095
1784841167.4501,4095,4095
1784841167.4630,690,4095
1784841167.4631,692,4095
1784841167.4632,690,4095
1784841167.4633,687,4095
1784841167.4634,676,4095
1784841167.4635,691,4095
1784841167.4635,689,4095
1784841167.4656,686,4095
1784841167.4677,691,4095
1784841167.4698,692,4095
1784841167.4719,693,4095
1784841167.4740,690,4095
1784841167.4761,949,4095
1784841167.4780,1388,4095
1784841167.4800,1729,4095
1784841167.4819,2017,4095
1784841167.4839,2253,4095
1784841167.4858,2488,4095
1784841167.4878,2651,4095
1784841167.4897,2748,4095
1784841167.4917,2804,4095
1784841167.4936,2827,4095
1784841167.4956,2812,4095
1784841167.4975,2805,4095
1784841167.4995,2822,4095
1784841167.5015,2831,4095
1784841167.5035,2782,4095
1784841167.5055,2729,4095
1784841167.5075,2642,4095
1784841167.5094,2622,4095
1784841167.5114,2580,4095
1784841167.5142,2470,4095
1784841167.5169,2439,4095
1784841167.5197,2344,4095
1784841167.5224,2349,4095
1784841167.5251,2205,4095
1784841167.5335,2129,4095
1784841167.5336,2105,4095
1784841167.5337,2058,4095
1784841167.5338,2012,4095
1784841167.5339,1997,4095
1784841167.5340,1920,4095
1784841167.5360,1863,4095
1784841167.5380,1845,4095
1784841167.5400,1818,4095
1784841167.5420,1795,4095
1784841167.5439,1781,4095
1784841167.5459,1768,4095
1784841167.5479,1758,4095
1784841167.5498,1747,4095
1784841167.5518,1737,4095
1784841167.5538,1747,4095
1784841167.5557,1681,4095
1784841167.5577,1670,4095
1784841167.5597,1681,4095
1784841167.5616,1711,4095
1784841167.5636,1682,4085
1784841167.5656,1676,4089
1784841167.5676,1704,4084
1784841167.5695,1703,4067
1784841167.5714,1713,4071
1784841167.5732,1695,4055
1784841167.5750,1747,4042
1784841167.5768,1776,4024
1784841167.5786,1715,4009
1784841167.5805,1716,3992
1784841167.5828,1912,3978
1784841167.5851,1761,3970
1784841167.5874,1676,3959
1784841167.5897,1643,3951
1784841167.5920,1668,3958
1784841167.5941,1768,3929
1784841167.5961,1812,3916
1784841167.5982,1541,3900
1784841167.6002,1554,3885
1784841167.6022,1579,3879
1784841167.6043,1630,3856
1784841167.6062,1602,3852
1784841167.6081,1680,3839
1784841167.6101,1641,3824
1784841167.6120,1682,3841
1784841167.6139,1672,3814
1784841167.6159,1648,3799
1784841167.6178,1667,3800
1784841167.6198,1693,3777
1784841167.6217,1731,3766
1784841167.6237,1716,3756
1784841167.6256,1728,3751
1784841167.6275,1739,3740
1784841167.6296,1738,3733
1784841167.6316,1742,3738
1784841167.6336,1735,3723
1784841167.6356,1724,3700
1784841167.6376,1749,3697
1784841167.6396,1724,3680
1784841167.6425,1716,3664
1784841167.6455,1719,3659
1784841167.6484,1733,3653
1784841167.6514,1738,3656
1784841167.6543,1736,3646
1784841167.6616,1747,3643
1784841167.6617,1734,3626
1784841167.6619,1693,3613
1784841167.6620,1698,3616
1784841167.6622,1712,3587
1784841167.6623,1711,3585
1784841167.6643,1730,3572
1784841167.6662,1731,3565
1784841167.6681,1777,3556
1784841167.6701,1737,3557
1784841167.6720,1771,3564
1784841167.6740,1723,3541
1784841167.6762,1680,3537
1784841167.6784,1726,3526
1784841167.6807,1702,3514
1784841167.6829,1714,3511
1784841167.6851,1785,3497
1784841167.6873,1715,3492
1784841167.6891,1740,3457
1784841167.6909,1695,3481
1784841167.6927,1709,3490
1784841167.6944,1681,3464
1784841167.6962,1668,3457
1784841167.6980,1683,3450
1784841167.7016,1679,3444
1784841167.7052,1682,3431
1784841167.7088,1706,3424
1784841167.7124,1702,3424
1784841167.7160,1688,3415
1784841167.7196,1716,3407
1784841167.7204,1743,3413
1784841167.7213,1719,3402
1784841167.7221,1676,3397
1784841167.7229,1697,3380
1784841167.7238,1698,3377
1784841167.7252,1807,3365
1784841167.7267,1755,3366
1784841167.7281,1719,3357
1784841167.7296,1712,3352
1784841167.7310,1703,3346
1784841167.7324,1688,3349
1784841167.7344,1652,3339
1784841167.7363,1636,3326
1784841167.7383,1661,3319
1784841167.7402,1683,3311
1784841167.7422,1690,3309
1784841167.7441,1846,3302
1784841167.7462,1720,3294
1784841167.7483,1722,3290
1784841167.7504,1702,3283
1784841167.7525,1697,3296
1784841167.7546,1693,3276
1784841167.7567,1683,3270
1784841167.7587,1715,3261
1784841167.7606,1731,3255
1784841167.7626,1743,3254
1784841167.7645,1733,3251
1784841167.7665,1729,3237
1784841167.7684,1729,3233
1784841167.7705,1724,3229
1784841167.7727,1726,3226
1784841167.7748,1699,3218
1784841167.7769,1665,3219
1784841167.7791,1688,3209
1784841167.7927,1703,3207
1784841167.7960,1690,3198
1784841167.7993,1705,3191
1784841167.8026,1703,3186
1784841167.8059,1718,3181
1784841167.8092,1730,3178
1784841167.8093,1740,3183
1784841167.8095,1724,3165
1784841167.8096,1685,3153
1784841167.8097,1693,3153
1784841167.8099,1703,3149
1784841167.8100,1711,3145
1784841167.8107,1717,3146
1784841167.8114,1717,3136
1784841167.8121,1722,3129
1784841167.8128,1725,3123
1784841167.8135,1751,3135
1784841167.8142,1733,3115
1784841167.8161,1684,3109
1784841167.8181,1694,3110
1784841167.8200,1710,3105
1784841167.8220,1714,3098
1784841167.8239,1715,3090
1784841167.8259,1704,3089
1784841167.8277,1710,3078
1784841167.8295,1734,3071
1784841167.8313,1741,3079
1784841167.8332,1722,3066
1784841167.8350,1672,3064
1784841167.8368,1682,3053
1784841167.8394,1693,3051
1784841167.8420,1726,3045
1784841167.8446,1730,3043
1784841167.8472,1726,3035
1784841167.8498,1710,3030
1784841167.8517,1711,3026
1784841167.8536,3240,3319
1784841167.8555,3012,4095
1784841167.8574,1354,4095
1784841167.8592,1390,4095
1784841167.8611,1425,4095
1784841167.8631,1494,4095
1784841167.8651,1530,4095
1784841167.8670,1578,4095
1784841167.8690,1586,4095
1784841167.8710,1634,4095
1784841167.8729,1614,4095
1784841167.8749,1616,4095
1784841167.8769,1606,4095
1784841167.8788,1613,4087
1784841167.8808,1632,4088
1784841167.8828,1676,4070
1784841167.8847,1662,4057
1784841167.8866,1684,4047
1784841167.8884,1855,4004
1784841167.8903,1765,4018
1784841167.8921,1774,4040
1784841167.8940,1720,3992
1784841167.8958,1687,3981
1784841167.8981,1698,3968
1784841167.9003,1731,3962
1784841167.9025,1739,3944
1784841167.9048,1734,3933
1784841167.9070,1722,3922
1784841167.9177,1686,3910
1784841167.9178,1687,3889
1784841167.9180,1721,3890
1784841167.9181,1764,3874
1784841167.9183,1684,3865
1784841167.9184,1711,3849
1784841167.9204,1756,3841
1784841167.9223,1742,3834
1784841167.9243,1740,3817
1784841167.9263,1753,3807
1784841167.9282,1738,3790
1784841167.9302,1734,3784
1784841167.9322,1746,3796
1784841167.9342,1727,3759
1784841167.9362,1708,3747
1784841167.9382,1702,3738
1784841167.9401,1687,3732
1784841167.9421,1702,3729
1784841167.9456,1728,3711
1784841167.9491,1740,3699
1784841167.9525,1733,3699
1784841167.9560,1703,3685
1784841167.9595,1672,3689
1784841167.9629,1720,3667
1784841167.9632,1678,3663
1784841167.9635,1675,3651
1784841167.9638,1684,3641
1784841167.9640,1786,3639
1784841167.9643,1812,3631
1784841167.9646,1689,3591
1784841167.9669,1744,3615
1784841167.9693,2041,3598
1784841167.9716,2118,3599
1784841167.9740,2195,3579
1784841167.9763,1702,3571
1784841167.9783,2559,4095
1784841167.9803,1542,4095
1784841167.9824,1100,4095
1784841167.9844,3301,4095
1784841167.9864,4063,4095
1784841167.9884,4095,4095
1784841167.9904,689,4095
1784841167.9924,1027,4095
1784841167.9944,4095,4095
1784841167.9964,687,4095
1784841167.9984,796,4095
1784841168.0005,4095,4095
1784841168.0025,4095,4095
1784841168.0046,929,4095
1784841168.0066,2698,4095
1784841168.0087,4072,4095
1784841168.0107,4095,4095
1784841168.0128,4095,4095
1784841168.0147,4095,4095
1784841168.0166,4095,4095
1784841168.0186,4095,4095
1784841168.0205,4095,4095
1784841168.0224,4095,4095
1784841168.0244,2822,4095
1784841168.0274,1403,4095
1784841168.0304,691,4095
1784841168.0335,690,4095
1784841168.0365,687,4095
1784841168.0395,688,4095
1784841168.0426,694,4095
1784841168.0435,688,4095
1784841168.0445,690,4095
1784841168.0454,4095,4095
1784841168.0464,4095,4095
1784841168.0474,4095,4095
1784841168.0483,4095,4095
1784841168.0503,4095,4095
1784841168.0523,4095,4095
1784841168.0542,4095,4095
1784841168.0562,4095,4095
1784841168.0582,4095,4095
1784841168.0602,4095,4095
1784841168.0623,726,4095
1784841168.0644,4095,4095
1784841168.0665,685,4095
1784841168.0686,688,4095
1784841168.0707,4095,4095
1784841168.0728,790,4095
1784841168.0747,4095,4095
1784841168.0767,4095,4095
1784841168.0786,4095,4095
1784841168.0806,4095,4095
1784841168.0825,4095,4095
1784841168.0844,4095,4095
1784841168.0864,4095,4095
1784841168.0884,4095,4095
1784841168.0904,4095,4095
1784841168.0924,4095,4095
1784841168.0944,4095,4095
1784841168.0964,4095,4095
1784841168.1008,4095,4095
1784841168.1052,4095,4095
1784841168.1096,4095,4095
1784841168.1140,4095,4095
1784841168.1184,4095,4095
1784841168.1228,4095,4095
1784841168.1229,4095,4095
1784841168.1230,4095,4095
1784841168.1232,4095,4095
1784841168.1233,4095,4095
1784841168.1234,4095,4095
1784841168.1236,4095,4095
1784841168.1249,4095,4095
1784841168.1262,4095,4095
1784841168.1275,4095,4095
1784841168.1289,4095,4095
1784841168.1302,4095,4095
1784841168.1321,4095,4095
1784841168.1340,4095,4095
1784841168.1359,4095,4095
1784841168.1378,4095,4095
1784841168.1398,4095,4095
1784841168.1419,4095,4095
1784841168.1439,4095,4095
1784841168.1459,4095,4095
1784841168.1479,3123,4095
1784841168.1499,2182,4095
1784841168.1519,1386,4095
1784841168.1540,731,4095
1784841168.1561,689,4095
1784841168.1581,689,4095
1784841168.1602,674,4095
1784841168.1622,691,4095
1784841168.1643,690,4095
1784841168.1664,691,4095
1784841168.1685,690,4095
1784841168.1706,689,4095
1784841168.1726,687,4095
1784841168.1747,688,4095
1784841168.1772,680,4095
1784841168.1797,689,4095
1784841168.1822,689,4095
1784841168.1847,691,4095
1784841168.1872,691,4095
1784841168.1897,688,4095
1784841168.1922,688,4095
1784841168.1947,690,4095
1784841168.1972,691,4095
1784841168.1998,690,4095
1784841168.2023,694,4095
1784841168.2048,689,4095
1784841168.2073,795,4095
1784841168.2081,927,4095
1784841168.2088,1029,4095
1784841168.2096,1139,4095
1784841168.2104,1231,4095
1784841168.2112,1322,4095
1784841168.2120,1394,4095
1784841168.2141,1471,4095
1784841168.2161,689,4095
1784841168.2182,691,4095
1784841168.2203,689,4095
1784841168.2223,689,4095
1784841168.2244,883,4095
1784841168.2264,2493,4095
1784841168.2284,4095,4095
1784841168.2303,4095,4095
1784841168.2323,4095,4095
1784841168.2343,4095,4095
1784841168.2362,4095,4095
1784841168.2383,4095,4095
1784841168.2404,4095,4095
1784841168.2425,4095,4095
1784841168.2445,4095,4095
1784841168.2466,4095,4095
1784841168.2487,4095,4095
1784841168.2506,4095,4095
1784841168.2525,4095,4095
1784841168.2545,4095,4095
1784841168.2564,4095,4095
1784841168.2583,4095,4095
1784841168.2602,4095,4095
1784841168.2640,4095,4095
1784841168.2677,4095,4095
1784841168.2715,4095,4095
1784841168.2752,4095,4095
1784841168.2789,4095,4095
1784841168.2827,691,4095
1784841168.2829,690,4095
1784841168.2832,690,4095
1784841168.2834,688,4095
1784841168.2836,690,4095
1784841168.2839,688,4095
1784841168.2841,689,4095
1784841168.2861,690,4095
1784841168.2881,690,4095
1784841168.2901,1778,4095
1784841168.2921,2269,4095
1784841168.2941,2408,4095
1784841168.2961,2559,4095
1784841168.2981,3990,4095
1784841168.3000,2221,4095
1784841168.3020,2503,4095
1784841168.3039,2823,4095
1784841168.3059,2962,4095
1784841168.3078,4095,4095
1784841168.3100,4095,4095
1784841168.3121,4095,4095
1784841168.3143,693,4095
1784841168.3164,688,4095
1784841168.3186,690,4095
1784841168.3208,690,4095
1784841168.3227,4095,4095
1784841168.3246,4095,4095
1784841168.3266,4095,4095
1784841168.3285,4095,4095
1784841168.3305,4095,4095
1784841168.3324,4095,4095
1784841168.3344,4095,4095
1784841168.3363,4095,4095
1784841168.3383,4095,4095
1784841168.3403,4095,4095
1784841168.3423,691,4095
1784841168.3442,690,4095
1784841168.3470,691,4095
1784841168.3498,692,4095
1784841168.3525,4095,4095
1784841168.3553,4095,4095
1784841168.3581,4095,4095
1784841168.3609,4095,4095
1784841168.3620,4095,4095
1784841168.3632,4095,4095
1784841168.3644,4095,4095
1784841168.3656,4095,4095
1784841168.3667,4095,4095
1784841168.3679,4095,4095
1784841168.3699,4095,4095
1784841168.3719,4095,4095
1784841168.3739,690,4095
1784841168.3759,689,4095
1784841168.3779,690,4095
1784841168.3799,687,4095
1784841168.3820,689,4095
1784841168.3841,690,4095
1784841168.3862,2031,4095
1784841168.3882,4095,4095
1784841168.3903,4095,4095
1784841168.3924,4095,4095
1784841168.3946,4095,4095
1784841168.3967,4095,4095
1784841168.3989,4095,4095
1784841168.4010,4095,4095
1784841168.4031,4095,4095
1784841168.4053,4095,4095
1784841168.4074,4095,4095
1784841168.4096,4095,4095
1784841168.4117,4095,4095
1784841168.4139,4095,4095
1784841168.4160,4095,4095
1784841168.4258,4095,4095
1784841168.4291,4095,4095
1784841168.4324,4095,4095
1784841168.4357,4095,4095
1784841168.4390,4095,4095
1784841168.4423,4095,4095
1784841168.4424,3979,4095
1784841168.4426,2562,4095
1784841168.4427,4095,4095
1784841168.4429,4095,4095
1784841168.4430,688,4095
1784841168.4432,691,4095
1784841168.4444,2105,4095
1784841168.4455,4095,4095
1784841168.4467,4095,4095
1784841168.4479,4095,4095
1784841168.4491,4095,4095
1784841168.4503,3887,4095
1784841168.4523,4095,4095
1784841168.4543,4095,4095
1784841168.4564,688,4095
1784841168.4584,690,4095
1784841168.4604,690,4095
1784841168.4624,689,4095
1784841168.4642,691,4095
1784841168.4660,691,4095
1784841168.4678,690,4095
1784841168.4695,691,4095
1784841168.4713,690,4095
1784841168.4731,1215,4095
1784841168.4748,1480,4095
1784841168.4774,3006,4095
1784841168.4800,2270,4095
1784841168.4825,3390,4095
1784841168.4851,4095,4095
1784841168.4877,4095,4095
1784841168.4895,4095,4095
1784841168.4914,4095,4095
1784841168.4933,4095,4095
1784841168.4952,4095,4095
1784841168.4971,4095,4095
1784841168.4990,4095,4095
1784841168.5027,4095,4095
1784841168.5065,4095,4095
1784841168.5103,1570,4095
1784841168.5140,685,4095
1784841168.5178,690,4095
1784841168.5215,690,4095
1784841168.5217,689,4095
1784841168.5218,4095,4095
1784841168.5220,690,4095
1784841168.5221,4095,4095
1784841168.5222,4095,4095
1784841168.5224,4095,4095
1784841168.5244,4095,4095
1784841168.5263,4095,4095
1784841168.5283,4095,4095
1784841168.5302,4095,4095
1784841168.5322,4095,4095
1784841168.5342,4095,4095
1784841168.5362,4095,4095
1784841168.5382,689,4095
1784841168.5403,688,4095
1784841168.5423,692,4095
1784841168.5443,689,4095
1784841168.5464,688,4095
1784841168.5580,691,4095
1784841168.5581,699,4095
1784841168.5583,693,4095
1784841168.5584,689,4095
1784841168.5585,1050,4095
1784841168.5586,1290,4095
1784841168.5588,1828,4095
1784841168.5611,2384,4095
1784841168.5635,2529,4095
1784841168.5658,2790,4095
1784841168.5682,3001,4095
1784841168.5706,3196,4095
1784841168.5726,3349,4095
1784841168.5746,3384,4095
1784841168.5766,3351,4095
1784841168.5786,3404,4095
1784841168.5806,3429,4095
1784841168.5825,3333,4095
1784841168.5861,3277,4095
1784841168.5897,3224,4095
1784841168.5933,3165,4095
1784841168.5969,3077,4095
1784841168.6005,2984,4095
1784841168.6040,2900,4095
1784841168.6043,3424,4095
1784841168.6046,2634,4095
1784841168.6049,2540,4095
1784841168.6052,2476,4095
1784841168.6055,2415,4095
1784841168.6058,2354,4095
1784841168.6078,2271,4095
1784841168.6098,2206,4095
1784841168.6118,2151,4095
1784841168.6138,2106,4095
1784841168.6158,1996,4095
1784841168.6178,1932,4095
1784841168.6200,1879,4095
1784841168.6222,1827,4095
1784841168.6243,1769,4095
1784841168.6265,1754,4095
1784841168.6286,1755,4095
1784841168.6396,1758,4095
1784841168.6398,1760,4095
1784841168.6400,1745,4095
1784841168.6402,1786,4095
1784841168.6404,1652,4095
1784841168.6405,1630,4095
1784841168.6424,1619,4095
1784841168.6443,1642,4095
1784841168.6462,1645,4095
1784841168.6481,1660,4095
1784841168.6500,1676,4095
1784841168.6519,1749,4095
1784841168.6561,2388,4094
1784841168.6603,1601,4086
1784841168.6644,1633,4065
1784841168.6686,1647,4074
1784841168.6728,1675,4054
1784841168.6769,1675,4036
1784841168.6771,1677,4033
1784841168.6772,1677,4034
1784841168.6773,1692,4007
1784841168.6774,1698,3984
1784841168.6775,2483,3978
1784841168.6776,1720,3969
1784841168.6791,1719,3957
1784841168.6806,4095,4095
1784841168.6821,4095,4095
1784841168.6836,4095,4095
1784841168.6851,4095,4095
1784841168.6866,4095,4095
1784841168.6889,4095,4095
1784841168.6912,4095,4095
1784841168.6936,4095,4095
1784841168.6959,4095,4095
1784841168.6983,2235,4095
1784841168.7004,4095,4095
1784841168.7025,4095,4095
1784841168.7046,4095,4095
1784841168.7067,4095,4095
1784841168.7088,4095,4095
1784841168.7109,4095,4095
1784841168.7128,4095,4095
1784841168.7147,4095,4095
1784841168.7167,4095,4095
1784841168.7186,3139,4095
1784841168.7206,2012,4095
1784841168.7225,1079,4095
1784841168.7246,690,4095
1784841168.7266,690,4095
1784841168.7286,689,4095
1784841168.7307,689,4095
1784841168.7327,688,4095
1784841168.7348,687,4095
1784841168.7586,688,4095
1784841168.7593,689,4095
1784841168.7599,689,4095
1784841168.7606,690,4095
1784841168.7612,691,4095
1784841168.7619,692,4095
1784841168.7625,689,4095
1784841168.7627,689,4095
1784841168.7628,689,4095
1784841168.7629,690,4095
1784841168.7631,690,4095
1784841168.7632,693,4095
1784841168.7633,691,4095
1784841168.7649,690,4095
1784841168.7664,690,4095
1784841168.7679,4095,4095
1784841168.7695,4095,4095
1784841168.7710,4095,4095
1784841168.7726,4095,4095
1784841168.7745,4095,4095
1784841168.7765,4095,4095
1784841168.7784,4095,4095
1784841168.7804,4095,4095
1784841168.7823,4095,4095
1784841168.7843,4095,4095
1784841168.7862,4095,4095
1784841168.7881,4095,4095
1784841168.7901,4095,4095
1784841168.7920,4095,4095
