host_time_s,chA_raw,chB_env,env,intent
1784847443.1856,9,1000,0,0
1784847443.1872,1732,3260,629,1000
1784847443.1889,1702,3286,629,1000
1784847443.1904,1630,3307,628,1000
1784847443.1920,1649,3334,628,1000
1784847443.1936,1671,3303,627,1000
1784847443.1951,1671,3289,627,1000
1784847443.1980,1681,3282,627,1000
1784847443.2009,1695,3270,627,1000
1784847443.2037,1712,3270,627,1000
1784847443.2052,1714,3263,627,1000
1784847443.2066,1727,3248,627,1000
1784847443.2080,1950,3312,630,1000
1784847443.2103,1635,3311,629,1000
1784847443.2126,1656,3299,628,1000
1784847443.2149,1658,3291,628,1000
1784847443.2169,1671,3281,627,1000
1784847443.2189,1684,3277,627,1000
1784847443.2209,1705,3276,627,1000
1784847443.2227,1701,3267,627,1000
1784847443.2244,1711,3260,627,1000
1784847443.2262,1724,3268,627,1000
1784847443.2280,1698,3314,627,1000
1784847443.2300,1633,3305,627,1000
1784847443.2321,1647,3303,626,1000
1784847443.2341,1662,3301,626,1000
1784847443.2361,1679,3286,625,1000
1784847443.2382,1685,3286,625,1000
1784847443.2402,1697,3279,625,1000
1784847443.2499,1712,3273,625,1000
1784847443.2596,1724,3274,625,1000
1784847443.2693,1725,3282,625,1000
1784847443.2693,1699,3340,625,1000
1784847443.2694,1636,3311,625,1000
1784847443.2695,1651,3303,624,1000
1784847443.2696,1664,3299,624,1000
1784847443.2696,1672,3287,623,1000
1784847443.2697,1686,3283,623,1000
1784847443.2698,1704,3279,623,1000
1784847443.2699,1712,3273,623,1000
1784847443.2700,1714,3267,623,1000
1784847443.2700,1720,3272,624,1000
1784847443.2708,1685,3320,623,1000
1784847443.2715,1645,3311,623,1000
1784847443.2722,1649,3311,622,1000
1784847443.2747,1665,3297,622,1000
1784847443.2772,1680,3292,622,1000
1784847443.2797,1689,3284,621,1000
1784847443.2817,1699,3282,621,1000
1784847443.2838,1706,3275,621,1000
1784847443.2859,1713,3253,622,1000
1784847443.2875,1731,3277,622,1000
1784847443.2891,1699,3326,622,1000
1784847443.2907,1626,3316,621,1000
1784847443.2923,1648,3317,620,1000
1784847443.2943,1665,3310,620,1000
1784847443.2963,1678,3312,620,1000
1784847443.2984,1685,3295,620,1000
1784847443.3004,1699,3298,620,1000
1784847443.3024,1712,3288,620,1000
1784847443.3044,1717,3286,620,1000
1784847443.3064,1721,3271,620,1000
1784847443.3084,1740,3286,620,1000
1784847443.3104,1596,3337,619,1000
1784847443.3124,1648,3330,619,1000
1784847443.3144,1647,3325,618,1000
1784847443.3164,1660,3319,618,1000
1784847443.3184,1686,3316,617,1000
1784847443.3204,1699,3305,617,1000
1784847443.3224,1694,3300,617,1000
1784847443.3244,1708,3292,617,1000
1784847443.3265,1718,3298,618,1000
1784847443.3285,1693,3323,618,1000
1784847443.3305,1626,3312,617,1000
1784847443.3325,1637,3304,616,1000
1784847443.3345,1660,3304,616,1000
1784847443.3365,1681,3294,615,1000
1784847443.3385,1680,3288,615,1000
1784847443.3405,1693,3282,615,1000
1784847443.3425,1711,3279,615,1000
1784847443.3445,1721,3276,615,1000
1784847443.3465,1720,3283,616,1000
1784847443.3485,1690,3285,616,1000
1784847443.3505,1633,3272,615,1000
1784847443.3525,1659,3271,614,1000
1784847443.3545,1667,3268,614,1000
1784847443.3565,1677,3212,614,1000
1784847443.3585,1691,3261,614,1000
1784847443.3605,1704,3246,614,1000
1784847443.3625,1715,3255,614,1000
1784847443.3645,1718,3238,614,1000
1784847443.3666,1723,3235,614,1000
1784847443.3686,3144,3281,629,1000
1784847443.3706,1618,3279,628,1000
1784847443.3726,1645,3274,627,1000
1784847443.3746,1657,3256,626,1000
1784847443.3766,1679,3258,626,1000
1784847443.3786,1692,3255,626,1000
1784847443.3806,1703,3252,626,1000
1784847443.3826,1695,3243,626,1000
1784847443.3846,1714,3242,626,1000
1784847443.3866,1726,3239,626,1000
1784847443.3886,1720,3321,626,1000
1784847443.3906,1624,3318,625,1000
1784847443.3926,1646,3310,624,1000
1784847443.3946,1667,3301,624,1000
1784847443.3966,1677,3287,623,1000
1784847443.3986,1680,3292,623,1000
1784847443.4006,1696,3278,623,1000
1784847443.4026,1718,3281,623,1000
1784847443.4046,1714,3277,623,1000
1784847443.4067,1718,3276,623,1000
1784847443.4087,1709,3319,623,1000
1784847443.4107,1635,3321,622,1000
1784847443.4127,1654,3321,622,1000
1784847443.4147,1653,3305,621,1000
1784847443.4167,1673,3298,621,1000
1784847443.4187,1692,3291,620,1000
1784847443.4207,1707,3285,620,1000
1784847443.4227,1709,3276,620,1000
1784847443.4247,1716,3286,620,1000
1784847443.4267,1728,3268,620,1000
1784847443.4287,3268,3346,636,1000
1784847443.4307,1589,3333,635,1000
1784847443.4327,1643,3329,634,1000
1784847443.4347,1651,3318,633,1000
1784847443.4367,1673,3314,633,1000
1784847443.4387,1681,3307,632,1000
1784847443.4407,1689,3304,632,1000
1784847443.4427,1701,3298,632,1000
1784847443.4448,1718,3291,631,1000
1784847443.4468,1722,3297,631,1000
1784847443.4488,1683,3330,631,1000
1784847443.4508,1626,3325,630,1000
1784847443.4528,1645,3316,629,1000
1784847443.4548,1663,3310,629,1000
1784847443.4568,1670,3302,628,1000
1784847443.4588,1681,3298,628,1000
1784847443.4608,1700,3294,628,1000
1784847443.4628,1709,3289,627,1000
1784847443.4648,1710,3286,627,1000
1784847443.4668,1717,3284,627,1000
1784847443.4688,1723,3329,627,1000
1784847443.4708,1637,3329,626,1000
1784847443.4728,1647,3316,626,1000
1784847443.4748,1660,3304,625,1000
1784847443.4768,1676,3303,625,1000
1784847443.4788,1694,3301,624,1000
1784847443.4808,1694,3292,624,1000
1784847443.4828,1706,3285,624,1000
1784847443.4849,1716,3275,624,1000
1784847443.4869,1730,3280,624,1000
1784847443.4889,1741,3330,624,1000
1784847443.4909,1628,3321,623,1000
1784847443.4929,1647,3315,623,1000
1784847443.4949,1664,3317,622,1000
1784847443.4969,1677,3301,622,1000
1784847443.4989,1686,3298,621,1000
1784847443.5009,1696,3295,621,1000
1784847443.5029,1711,3298,621,1000
1784847443.5049,1717,3283,621,1000
1784847443.5069,1726,3288,621,1000
1784847443.5089,1687,3315,621,1000
1784847443.5109,1635,3309,620,1000
1784847443.5129,1649,3299,619,1000
1784847443.5149,1658,3292,619,1000
1784847443.5169,1673,3295,618,1000
1784847443.5189,1691,3277,618,1000
1784847443.5209,1705,3273,618,1000
1784847443.5230,1708,3271,618,1000
1784847443.5250,1711,3267,618,1000
1784847443.5270,1730,3270,618,1000
1784847443.5290,1699,3326,618,1000
1784847443.5310,1634,3315,617,1000
1784847443.5330,1642,3314,616,1000
1784847443.5350,1666,3297,616,1000
1784847443.5370,1680,3299,616,1000
1784847443.5390,1684,3286,615,1000
1784847443.5410,1697,3289,615,1000
1784847443.5430,1711,3282,615,1000
1784847443.5450,1725,3287,615,1000
1784847443.5470,1726,3294,615,1000
1784847443.5490,1701,3317,615,1000
1784847443.5510,1630,3308,614,1000
1784847443.5530,1652,3305,614,1000
1784847443.5550,1666,3296,613,1000
1784847443.5570,1675,3289,613,1000
1784847443.5590,1685,3282,613,1000
1784847443.5610,1706,3277,613,1000
1784847443.5631,1715,3274,613,1000
1784847443.5651,1720,3267,613,1000
1784847443.5671,1718,3270,613,1000
1784847443.5691,1679,3327,612,1000
1784847443.5711,1636,3321,612,1000
1784847443.5731,1647,3311,611,1000
1784847443.5751,1662,3305,610,1000
1784847443.5771,1674,3296,610,1000
1784847443.5791,1696,3287,610,1000
1784847443.5811,1697,3285,610,1000
1784847443.5831,1706,3280,610,1000
1784847443.5851,1715,3270,610,1000
1784847443.5871,1730,3272,610,1000
1784847443.5888,1732,3340,610,1000
1784847443.5904,1631,3338,609,1000
1784847443.5921,1647,3332,609,1000
1784847443.5942,1666,3322,608,1000
1784847443.5964,1672,3315,608,1000
1784847443.5985,1681,3306,608,1000
1784847443.6007,1697,3302,608,1000
1784847443.6029,1710,3299,608,1000
1784847443.6051,1717,3294,608,1000
1784847443.6066,1722,3296,608,1000
1784847443.6082,1694,3362,608,1000
1784847443.6097,1634,3354,607,1000
1784847443.6113,1648,3348,606,1000
1784847443.6135,1653,3340,606,1000
1784847443.6157,1669,3336,605,1000
1784847443.6179,1683,3331,605,1000
1784847443.6200,1703,3322,605,1000
1784847443.6221,1702,3273,605,1000
1784847443.6242,1716,3306,605,1000
1784847443.6263,1727,3352,605,1000
1784847443.6284,1700,3422,605,1000
1784847443.6306,1630,3357,604,1000
1784847443.6327,1639,3355,604,1000
1784847443.6349,1660,3346,603,1000
1784847443.6371,1678,3338,603,1000
1784847443.6386,1686,3334,603,1000
1784847443.6402,1693,3324,602,1000
1784847443.6417,1710,3319,603,1000
1784847443.6433,1717,3312,603,1000
1784847443.6455,1727,3318,603,1000
1784847443.6477,1702,3370,603,1000
1784847443.6500,1628,3347,602,1000
1784847443.6520,1648,3348,601,1000
1784847443.6541,1661,3345,601,1000
1784847443.6562,1673,3338,601,1000
1784847443.6583,1682,3331,600,1000
1784847443.6604,1699,3319,600,1000
1784847443.6625,1712,3322,600,1000
1784847443.6647,1714,3313,600,1000
1784847443.6668,1719,3308,601,1000
1784847443.6690,1732,3308,601,1000
1784847443.6705,2553,3344,609,1000
1784847443.6721,1627,3330,608,1000
1784847443.6737,1648,3333,608,1000
1784847443.6752,1663,3316,607,1000
1784847443.6774,1681,3303,607,1000
1784847443.6796,1685,3300,607,1000
1784847443.6818,1692,3301,606,1000
1784847443.6842,1708,3293,606,1000
1784847443.6866,1719,3310,606,1000
1784847443.6890,1694,3360,606,1000
1784847443.6908,1621,3348,605,1000
1784847443.6926,1643,3342,605,1000
1784847443.6945,1660,3329,604,1000
1784847443.6966,1671,3328,604,1000
1784847443.6987,1679,3324,603,1000
1784847443.7009,1697,3316,603,1000
1784847443.7025,1708,3310,603,1000
1784847443.7041,1714,3304,603,1000
1784847443.7057,1714,3304,603,1000
1784847443.7074,1720,3336,603,1000
1784847443.7095,1634,3324,603,1000
1784847443.7117,1648,3328,602,1000
1784847443.7138,1657,3317,601,1000
1784847443.7197,1669,3314,601,1000
1784847443.7256,1687,3308,601,1000
1784847443.7314,1702,3299,601,1000
1784847443.7342,1712,3295,601,1000
1784847443.7369,1716,3284,601,1000
1784847443.7396,1720,3283,601,1000
1784847443.7410,1742,3279,601,1000
1784847443.7424,1654,3345,601,1000
1784847443.7438,1633,3342,600,1000
1784847443.7452,1650,3334,599,1000
1784847443.7466,1670,3327,599,1000
1784847443.7480,1677,3321,598,1000
1784847443.7494,1688,3316,598,1000
1784847443.7499,1702,3314,598,1000
1784847443.7503,1716,3304,598,1000
1784847443.7508,1720,3300,598,1000
1784847443.7588,3312,3337,614,1000
1784847443.7668,1585,3332,613,1000
1784847443.7748,1641,3314,612,1000
1784847443.7749,1655,3351,612,1000
1784847443.7750,1663,3309,611,1000
1784847443.7750,1676,3313,610,1000
1784847443.7751,1696,3296,610,1000
1784847443.7752,1708,3297,610,1000
1784847443.7753,1709,3284,610,1000
1784847443.7753,1714,3291,610,1000
1784847443.7754,1760,3324,610,1000
1784847443.7755,1634,3315,609,1000
1784847443.7755,1637,3312,608,1000
1784847443.7765,1653,3315,608,1000
1784847443.7775,1679,3299,607,1000
1784847443.7784,1685,3289,607,1000
1784847443.7804,1696,3286,607,1000
1784847443.7823,1697,3289,607,1000
1784847443.7842,1717,3287,607,1000
1784847443.7882,1731,3272,607,1000
1784847443.7922,1944,3329,609,1000
1784847443.7962,1626,3333,608,1000
1784847443.8001,1648,3319,607,1000
1784847443.8041,1665,3310,607,1000
1784847443.8081,1676,3301,606,1000
1784847443.8083,1681,3304,606,1000
1784847443.8085,1697,3289,606,1000
1784847443.8087,1716,3286,606,1000
1784847443.8090,1724,3277,606,1000
1784847443.8092,1723,3291,606,1000
1784847443.8094,1697,3322,605,1000
1784847443.8096,1638,3318,605,1000
1784847443.8145,1655,3351,604,1000
1784847443.8194,1659,3306,603,1000
1784847443.8243,1668,3303,603,1000
1784847443.8336,1687,3297,603,1000
1784847443.8428,1700,3286,602,1000
1784847443.8521,1706,3284,602,1000
1784847443.8531,1717,3278,602,1000
1784847443.8541,1731,3270,602,1000
1784847443.8551,1739,3331,603,1000
1784847443.8561,1625,3327,602,1000
1784847443.8571,1634,3286,601,1000
1784847443.8581,1659,3311,600,1000
1784847443.8591,1678,3308,600,1000
1784847443.8601,1687,3295,600,1000
1784847443.8611,1695,3300,599,1000
1784847443.8621,1712,3285,599,1000
1784847443.8631,1722,3275,599,1000
1784847443.8641,1735,3283,600,1000
1784847443.8651,1686,3341,599,1000
1784847443.8652,1618,3340,598,1000
1784847443.8653,1644,3331,598,1000
1784847443.8654,1662,3327,597,1000
1784847443.8655,1667,3311,597,1000
1784847443.8657,1683,3322,596,1000
1784847443.8658,1701,3291,596,1000
1784847443.8661,1712,3301,596,1000
1784847443.8664,1712,3294,596,1000
1784847443.8668,1718,3302,596,1000
1784847443.8671,1694,3345,596,1000
1784847443.8696,1639,3326,595,1000
1784847443.8721,1648,3334,595,1000
1784847443.8747,1662,3326,594,1000
1784847443.8772,1679,3316,594,1000
1784847443.8797,1700,3334,594,1000
1784847443.8822,1694,3301,593,1000
1784847443.8847,1705,3301,593,1000
1784847443.8873,1716,3299,593,1000
1784847443.8898,1731,3298,594,1000
1784847443.8910,1687,3359,593,1000
1784847443.8922,1629,3301,592,1000
1784847443.8934,1648,3338,592,1000
1784847443.8954,1663,3331,591,1000
1784847443.8974,1679,3323,591,1000
1784847443.8994,1686,3324,591,1000
1784847443.9015,1702,3321,591,1000
1784847443.9046,1709,3308,591,1000
1784847443.9077,1714,3305,591,1000
1784847443.9108,1716,3312,591,1000
1784847443.9113,1692,3340,591,1000
1784847443.9118,1636,3328,590,1000
1784847443.9123,1651,3329,589,1000
1784847443.9144,1657,3320,589,1000
1784847443.9165,1668,3308,588,1000
1784847443.9187,1691,3310,588,1000
1784847443.9209,1707,3302,588,1000
1784847443.9232,1711,3310,588,1000
1784847443.9254,1711,3293,588,1000
1784847443.9276,1727,3293,588,1000
1784847443.9299,1713,3354,588,1000
1784847443.9321,1626,3340,588,1000
1784847443.9343,1643,3348,587,1000
1784847443.9366,1660,3328,586,1000
1784847443.9388,1676,3330,586,1000
1784847443.9410,1682,3318,586,1000
1784847443.9433,1694,3316,586,1000
1784847443.9455,1712,3358,586,1000
1784847443.9477,1723,3306,586,1000
1784847443.9487,1725,3294,586,1000
1784847443.9496,1709,3363,586,1000
1784847443.9506,1627,3358,585,1000
1784847443.9553,1648,3349,585,1000
1784847443.9599,1661,3345,584,1000
1784847443.9646,1669,3336,584,1000
1784847443.9648,1684,3328,584,1000
1784847443.9650,1703,3318,584,1000
1784847443.9652,1710,3324,584,1000
1784847443.9653,1712,3316,584,1000
1784847443.9669,1723,3331,584,1000
1784847443.9684,1699,3361,584,1000
1784847443.9699,1642,3328,583,1000
1784847443.9734,1640,3345,582,1000
1784847443.9770,1656,3330,582,1000
1784847443.9806,1678,3330,582,1000
1784847443.9836,1691,3311,581,1000
1784847443.9867,1699,3370,581,1000
1784847443.9897,1724,3306,582,1000
1784847443.9927,1714,3264,582,1000
1784847443.9958,1727,3304,582,1000
1784847443.9988,1688,3331,582,1000
1784847444.0019,1671,3316,581,1000
1784847444.0049,1615,3310,580,1000
1784847444.0080,1636,3293,580,1000
1784847444.0110,1649,3306,579,1000
1784847444.0140,1649,3288,579,1000
1784847444.0171,1671,3289,578,1000
1784847444.0201,1691,3279,578,1000
1784847444.0232,1703,3305,578,1000
1784847444.0262,2090,3277,582,1000
1784847444.0293,1626,3353,581,1000
1784847444.0323,1594,3347,580,1000
1784847444.0354,1613,3342,579,1000
1784847444.0384,1621,3342,578,1000
1784847444.0386,1645,3330,578,1000
1784847444.0388,1662,3332,577,1000
1784847444.0390,1681,3316,577,1000
1784847444.0392,1689,3342,577,1000
1784847444.0394,1705,3316,577,1000
1784847444.0396,1718,3296,577,1000
1784847444.0398,3286,3348,593,1000
1784847444.0400,1585,3294,592,1000
1784847444.0402,1630,3364,591,1000
1784847444.0404,1651,3310,590,1000
1784847444.0407,1677,3309,590,1000
1784847444.0410,1693,3299,589,1000
1784847444.0413,1683,3299,589,1000
1784847444.0439,1701,3287,589,1000
1784847444.0464,1719,3281,589,1000
1784847444.0490,1732,3293,589,1000
1784847444.0515,1674,3326,589,1000
1784847444.0540,1636,3322,588,1000
1784847444.0565,1647,3313,587,1000
1784847444.0576,1666,3302,587,1000
1784847444.0588,1676,3303,586,1000
1784847444.0599,1686,3294,586,1000
1784847444.0610,1706,3286,586,1000
1784847444.0663,1714,3280,586,1000
1784847444.0717,1717,3281,586,1000
1784847444.0770,1723,3274,586,1000
1784847444.0773,1715,3336,586,1000
1784847444.0776,1641,3335,585,1000
1784847444.0779,1648,3324,584,1000
1784847444.0781,1664,3311,584,1000
1784847444.0783,1679,3313,584,1000
1784847444.0786,1694,3305,583,1000
1784847444.0809,1705,3346,583,1000
1784847444.0832,1702,3282,583,1000
1784847444.0855,1717,3277,583,1000
1784847444.0871,1729,3285,583,1000
1784847444.0888,1695,3330,583,1000
1784847444.0904,1633,3327,582,1000
1784847444.0920,1652,3322,582,1000
1784847444.0944,1671,3321,581,1000
1784847444.0968,1678,3306,581,1000
1784847444.0993,1689,3253,581,1000
1784847444.1013,1709,3292,581,1000
1784847444.1034,1709,3289,581,1000
1784847444.1055,1723,3277,581,1000
1784847444.1074,1722,3276,581,1000
1784847444.1092,1709,3324,581,1000
1784847444.1111,1636,3315,580,1000
1784847444.1162,1652,3311,580,1000
1784847444.1213,1658,3302,579,1000
1784847444.1265,1666,3291,579,1000
1784847444.1316,1689,3294,578,1000
1784847444.1367,1703,3281,578,1000
1784847444.1418,1709,3278,578,1000
1784847444.1469,1715,3285,578,1000
1784847444.1472,1726,3276,578,1000
1784847444.1474,1689,3325,578,1000
1784847444.1477,1647,3320,578,1000
1784847444.1480,1632,3313,577,1000
1784847444.1483,1664,3346,576,1000
1784847444.1486,1678,3299,576,1000
1784847444.1489,1687,3304,576,1000
1784847444.1491,1695,3303,576,1000
1784847444.1494,1712,3269,576,1000
1784847444.1498,1723,3269,576,1000
1784847444.1501,1727,3293,576,1000
1784847444.1505,1702,3312,576,1000
1784847444.1519,1632,3338,575,1000
1784847444.1533,1651,3301,575,1000
1784847444.1547,1664,3295,574,1000
1784847444.1561,1664,3289,574,1000
1784847444.1586,1688,3284,574,1000
1784847444.1611,1701,3282,573,1000
1784847444.1636,1712,3283,573,1000
1784847444.1656,1712,3265,574,1000
1784847444.1677,1718,3267,574,1000
1784847444.1698,1685,3293,573,1000
1784847444.1732,1639,3286,573,1000
1784847444.1767,1647,3264,572,1000
1784847444.1801,1660,3270,572,1000
1784847444.1803,1679,3265,571,1000
1784847444.1806,1693,3260,571,1000
1784847444.1808,1702,3257,571,1000
1784847444.1824,1706,3259,571,1000
1784847444.1841,1715,3245,571,1000
1784847444.1858,1729,3260,571,1000
1784847444.1874,1700,3274,571,1000
1784847444.1898,1632,3274,571,1000
1784847444.1922,1654,3280,570,1000
1784847444.1946,1680,3259,570,1000
1784847444.2035,1678,3286,570,1000
1784847444.2124,1687,3254,569,1000
1784847444.2214,1694,3241,569,1000
1784847444.2215,1711,3243,569,1000
1784847444.2216,1722,3235,569,1000
1784847444.2217,1720,3227,570,1000
1784847444.2218,1731,3221,570,1000
1784847444.2220,2539,3294,578,1000
1784847444.2221,1637,3275,577,1000
1784847444.2222,1657,3259,577,1000
1784847444.2223,1662,3272,576,1000
1784847444.2224,1679,3263,576,1000
1784847444.2226,1697,3252,576,1000
1784847444.2238,1698,3252,576,1000
1784847444.2251,1712,3241,576,1000
1784847444.2264,1714,3242,576,1000
1784847444.2294,1684,3263,575,1000
1784847444.2323,1627,3255,574,1000
1784847444.2353,1644,3247,574,1000
1784847444.2368,1663,3248,573,1000
1784847444.2383,1684,3245,573,1000
1784847444.2398,1689,3229,573,1000
1784847444.2416,1690,3254,572,1000
1784847444.2434,1710,3219,572,1000
1784847444.2452,1725,3209,573,1000
1784847444.2468,1729,3226,573,1000
1784847444.2485,1696,3253,573,1000
1784847444.2501,1635,3245,572,1000
1784847444.2517,1655,3234,571,1000
1784847444.2561,1670,3233,571,1000
1784847444.2604,1669,3221,570,1000
1784847444.2648,1690,3225,570,1000
1784847444.2651,1700,3213,570,1000
1784847444.2653,1716,3221,570,1000
1784847444.2656,1715,3206,570,1000
1784847444.2689,1720,3204,570,1000
1784847444.2723,1730,3200,571,1000
1784847444.2756,1739,3193,571,1000
1784847444.2762,1739,3185,571,1000
1784847444.2767,1815,3276,572,1000
1784847444.2773,1648,3271,571,1000
1784847444.2789,1653,3260,571,1000
1784847444.2806,1673,3257,570,1000
1784847444.2822,1679,3249,570,1000
1784847444.2839,1694,3234,570,1000
1784847444.2860,1714,3244,570,1000
1784847444.2882,1691,3265,570,1000
1784847444.2903,1614,3256,569,1000
1784847444.2926,1635,3251,568,1000
1784847444.2949,1659,3243,568,1000
1784847444.2973,1668,3249,567,1000
1784847444.2996,1673,3233,567,1000
1784847444.3019,1686,3234,567,1000
1784847444.3042,1706,3226,567,1000
1784847444.3058,1712,3215,567,1000
1784847444.3074,1710,3223,567,1000
1784847444.3090,1685,3258,566,1000
1784847444.3109,1639,3262,566,1000
1784847444.3128,1653,3249,565,1000
1784847444.3146,1663,3243,565,1000
1784847444.3165,1674,3196,564,1000
1784847444.3186,1692,3229,564,1000
1784847444.3208,1707,3221,564,1000
1784847444.3229,1709,3226,564,1000
1784847444.3249,1707,3217,564,1000
1784847444.3269,1736,3204,564,1000
1784847444.3289,3265,3292,580,1000
1784847444.3311,1600,3266,579,1000
1784847444.3334,1646,3266,578,1000
1784847444.3356,1661,3264,577,1000
1784847444.3374,1680,3257,577,1000
1784847444.3392,1684,3256,577,1000
1784847444.3410,1693,3223,576,1000
1784847444.3426,1709,3244,576,1000
1784847444.3442,1722,3240,576,1000
1784847444.3458,1727,3243,576,1000
1784847444.3474,1691,3294,576,1000
1784847444.3495,1635,3262,575,1000
1784847444.3517,1658,3261,574,1000
1784847444.3539,1674,3257,574,1000
1784847444.3560,1666,3241,573,1000
1784847444.3581,1686,3230,573,1000
1784847444.3602,1707,3237,573,1000
1784847444.3623,1734,3225,573,1000
1784847444.3644,1713,3223,573,1000
1784847444.3665,1719,3233,573,1000
1784847444.3686,1709,3279,573,1000
1784847444.3708,1647,3256,572,1000
1784847444.3729,1648,3258,572,1000
1784847444.3745,1662,3251,571,1000
1784847444.3762,1678,3249,571,1000
1784847444.3778,1694,3241,570,1000
1784847444.3794,1702,3250,570,1000
1784847444.3816,1708,3234,570,1000
1784847444.3839,1717,3227,570,1000
1784847444.3861,1733,3223,570,1000
1784847444.3881,1729,3204,570,1000
1784847444.3901,2526,3277,578,1000
1784847444.3922,1631,3305,577,1000
1784847444.3943,1657,3294,577,1000
1784847444.3964,1666,3293,576,1000
1784847444.3985,1675,3281,576,1000
1784847444.4010,1682,3277,575,1000
1784847444.4034,1698,3269,575,1000
1784847444.4058,1715,3264,575,1000
1784847444.4072,1716,3261,575,1000
1784847444.4085,1687,3288,575,1000
1784847444.4099,1630,3279,574,1000
1784847444.4112,1651,3276,573,1000
1784847444.4135,1664,3267,572,1000
1784847444.4158,1656,3266,572,1000
1784847444.4181,1683,3257,571,1000
1784847444.4202,1698,3246,571,1000
1784847444.4222,1709,3257,571,1000
1784847444.4243,1707,3238,571,1000
1784847444.4264,1721,3242,571,1000
1784847444.4285,1695,3302,571,1000
1784847444.4306,1636,3286,570,1000
1784847444.4340,1644,3289,569,1000
1784847444.4375,1676,3293,568,1000
1784847444.4409,1682,3277,568,1000
1784847444.4444,1687,3260,568,1000
1784847444.4478,1694,3256,568,1000
1784847444.4513,1708,3250,567,1000
1784847444.4547,1708,3239,567,1000
1784847444.4558,1731,3242,568,1000
1784847444.4568,1717,3307,567,1000
1784847444.4578,1633,3299,567,1000
1784847444.4581,1652,3292,566,1000
1784847444.4584,1666,3287,565,1000
1784847444.4587,1677,3275,565,1000
1784847444.4600,1683,3274,565,1000
1784847444.4612,1712,3267,565,1000
1784847444.4625,1712,3258,565,1000
1784847444.4647,1714,3256,565,1000
1784847444.4668,1719,3262,565,1000
1784847444.4689,1698,3302,564,1000
1784847444.4739,1642,3294,564,1000
1784847444.4789,1649,3326,563,1000
1784847444.4839,1661,3278,563,1000
1784847444.4889,1683,3283,562,1000
1784847444.4890,1692,3270,562,1000
1784847444.4891,1699,3263,562,1000
1784847444.4893,1708,3255,562,1000
1784847444.4894,1715,3261,562,1000
1784847444.4895,1730,3251,562,1000
1784847444.4897,1714,3310,562,1000
1784847444.4915,1633,3297,561,1000
1784847444.4934,1651,3290,560,1000
1784847444.4953,1667,3283,560,1000
1784847444.4994,1683,3275,560,1000
1784847444.5036,1685,3263,559,1000
1784847444.5077,1692,3271,559,1000
1784847444.5081,1711,3264,559,1000
1784847444.5084,1725,3258,559,1000
1784847444.5088,1726,3260,559,1000
1784847444.5092,1695,3303,559,1000
1784847444.5108,1643,3296,559,1000
1784847444.5123,1653,3297,558,1000
1784847444.5139,1659,3282,557,1000
1784847444.5161,1671,3271,557,1000
1784847444.5184,1688,3267,557,1000
1784847444.5206,1706,3264,557,1000
1784847444.5226,1704,3256,557,1000
1784847444.5246,1716,3249,557,1000
1784847444.5267,1729,3260,557,1000
1784847444.5289,1712,3282,557,1000
1784847444.5311,1634,3278,556,1000
1784847444.5333,1646,3290,555,1000
1784847444.5373,1662,3283,555,1000
1784847444.5412,1680,3275,555,1000
1784847444.5451,1687,3269,554,1000
1784847444.5490,1698,3275,554,1000
1784847444.5493,1710,3259,554,1000
1784847444.5495,1726,3245,554,1000
1784847444.5498,1730,3246,555,1000
1784847444.5506,2585,3303,563,1000
1784847444.5513,1624,3294,562,1000
1784847444.5521,1652,3286,562,1000
1784847444.5554,1662,3279,561,1000
1784847444.5587,1669,3297,561,1000
1784847444.5620,1683,3265,560,1000
1784847444.5654,1701,3264,560,1000
1784847444.5687,1712,3263,560,1000
1784847444.5720,1713,3254,560,1000
1784847444.5723,1718,3260,560,1000
1784847444.5725,1689,3332,560,1000
1784847444.5728,1630,3291,559,1000
1784847444.5731,1646,3290,558,1000
1784847444.5752,1661,3289,558,1000
1784847444.5774,1680,3276,557,1000
1784847444.5795,1694,3273,557,1000
1784847444.5816,1702,3278,557,1000
1784847444.5838,1706,3264,557,1000
1784847444.5859,1718,3257,557,1000
1784847444.5874,1731,3254,557,1000
1784847444.5889,1887,3314,559,1000
1784847444.5904,1627,3306,558,1000
1784847444.5929,1646,3304,557,1000
1784847444.5953,1672,3300,557,1000
1784847444.5978,1680,3290,556,1000
1784847444.5993,1681,3278,556,1000
1784847444.6008,1693,3277,556,1000
1784847444.6023,1712,3271,556,1000
1784847444.6038,1721,3268,556,1000
1784847444.6060,1720,3270,556,1000
1784847444.6083,1713,3278,556,1000
1784847444.6106,1640,3284,555,1000
1784847444.6127,1649,3271,554,1000
1784847444.6148,1663,3276,554,1000
1784847444.6169,1674,3274,554,1000
1784847444.6197,1694,3262,553,1000
1784847444.6226,1711,3260,553,1000
1784847444.6254,1713,3242,553,1000
1784847444.6266,1717,3249,553,1000
1784847444.6278,1726,3237,553,1000
1784847444.6291,3184,3274,568,1000
1784847444.6306,1591,3255,567,1000
1784847444.6322,1638,3250,566,1000
1784847444.6337,1657,3244,565,1000
1784847444.6353,1684,3245,565,1000
1784847444.6379,1684,3238,564,1000
1784847444.6405,1690,3231,564,1000
1784847444.6432,1701,3224,564,1000
1784847444.6449,1718,3220,564,1000
1784847444.6466,1721,3217,564,1000
1784847444.6483,1718,3244,564,1000
1784847444.6504,1636,3235,563,1000
1784847444.6525,1653,3231,562,1000
1784847444.6545,1670,3222,561,1000
1784847444.6572,1670,3212,561,1000
1784847444.6599,1683,3208,560,1000
1784847444.6626,1706,3212,560,1000
1784847444.6653,1714,3201,560,1000
1784847444.6680,1715,3193,560,1000
1784847444.6708,1720,3173,560,1000
1784847444.6735,1697,3231,560,1000
1784847444.6737,1646,3233,559,1000
1784847444.6739,1648,3227,558,1000
1784847444.6741,1667,3217,558,1000
1784847444.6774,1689,3211,557,1000
1784847444.6806,1701,3222,557,1000
1784847444.6838,1696,3204,557,1000
1784847444.6848,1707,3199,557,1000
1784847444.6858,1717,3191,557,1000
1784847444.6868,1728,3194,557,1000
1784847444.6890,1712,3272,557,1000
1784847444.6912,1635,3274,556,1000
1784847444.6934,1650,3267,555,1000
1784847444.6954,1669,3264,555,1000
1784847444.6975,1682,3221,554,1000
1784847444.6995,1683,3254,554,1000
1784847444.7016,1703,3246,554,1000
1784847444.7030,1717,3233,554,1000
1784847444.7044,1738,3229,554,1000
1784847444.7059,1732,3239,554,1000
1784847444.7084,1708,3276,554,1000
1784847444.7109,1648,3269,553,1000
1784847444.7134,1646,3269,553,1000
1784847444.7152,1651,3259,552,1000
1784847444.7169,1657,3253,551,1000
1784847444.7187,1675,3251,551,1000
1784847444.7208,1685,3242,551,1000
1784847444.7228,1697,3237,550,1000
1784847444.7249,1710,3236,550,1000
1784847444.7265,1773,3235,551,1000
1784847444.7280,1686,3293,551,1000
1784847444.7296,1630,3286,550,1000
1784847444.7312,1644,3264,549,1000
1784847444.7334,1659,3274,548,1000
1784847444.7356,1679,3265,548,1000
1784847444.7378,1691,3260,548,1000
1784847444.7399,1697,3258,548,1000
1784847444.7420,1710,3251,548,1000
1784847444.7442,1731,3235,548,1000
1784847444.7463,1781,3263,548,1000
1784847444.7484,1703,3324,548,1000
1784847444.7505,1636,3315,548,1000
1784847444.7526,1658,3304,547,1000
1784847444.7547,1666,3299,547,1000
1784847444.7568,1664,3294,546,1000
1784847444.7584,1681,3296,546,1000
1784847444.7600,1703,3281,546,1000
1784847444.7616,1709,3282,546,1000
1784847444.7631,1714,3262,546,1000
1784847444.7654,1723,3274,546,1000
1784847444.7676,1692,3299,545,1000
1784847444.7699,1647,3280,545,1000
1784847444.7784,1668,3278,544,1000
1784847444.7868,1660,3280,544,1000
1784847444.7953,1723,3272,544,1000
1784847444.7955,1686,3266,544,1000
1784847444.7956,1691,3256,543,1000
1784847444.7958,1690,3254,543,1000
1784847444.7959,1678,3250,543,1000
1784847444.7961,1678,3249,542,1000
1784847444.7963,1672,3292,542,1000
1784847444.7964,1635,3290,541,1000
1784847444.7966,1665,3280,541,1000
1784847444.7967,1680,3275,541,1000
1784847444.7969,1762,3274,541,1000
1784847444.7986,1670,3278,541,1000
1784847444.8003,1685,3259,540,1000
1784847444.8020,1697,3256,540,1000
1784847444.8048,1718,3249,540,1000
1784847444.8075,1722,3251,540,1000
1784847444.8102,1688,3401,540,1000
1784847444.8117,1642,3394,540,1000
1784847444.8133,1658,3390,539,1000
1784847444.8148,1648,3376,538,1000
1784847444.8170,1650,3366,538,1000
1784847444.8192,1669,3360,537,1000
1784847444.8214,1683,3353,537,1000
1784847444.8236,1699,3340,537,1000
1784847444.8259,1695,3334,537,1000
1784847444.8281,1707,3344,537,1000
1784847444.8303,1787,3468,538,1000
1784847444.8321,1620,3442,537,1000
1784847444.8339,1593,3446,536,1000
1784847444.8357,1586,3445,534,1000
1784847444.8374,1667,3438,534,1000
1784847444.8391,1740,3416,534,1000
1784847444.8407,1730,3413,535,1000
1784847444.8433,1711,3423,535,1000
1784847444.8458,1723,3406,535,1000
1784847444.8483,1737,3415,535,1000
1784847444.8511,1725,3541,535,1000
1784847444.8538,1533,3524,534,1000
1784847444.8565,1616,3515,533,1000
1784847444.8572,1684,3505,532,1000
1784847444.8578,1713,3494,533,1000
1784847444.8585,1693,3492,532,1000
1784847444.8591,1702,3484,532,1000
1784847444.8615,1729,3483,533,1000
1784847444.8639,1728,3466,533,1000
1784847444.8663,1737,3471,533,1000
1784847444.8683,1669,3599,533,1000
1784847444.8703,1534,3583,531,1000
1784847444.8723,1596,3590,530,1000
1784847444.8758,1687,3568,530,1000
1784847444.8792,1712,3568,530,1000
1784847444.8827,1673,3554,530,1000
1784847444.8840,1686,3542,529,1000
1784847444.8852,1708,3533,529,1000
1784847444.8865,1725,3528,530,1000
1784847444.8891,1695,3533,530,1000
1784847444.8918,1672,3582,529,1000
1784847444.8945,1612,3564,528,1000
1784847444.8972,1623,3567,528,1000
1784847444.8977,1692,3560,527,1000
1784847444.8982,1653,3544,527,1000
1784847444.8987,1674,3533,527,1000
1784847444.9009,1696,3524,527,1000
1784847444.9031,1680,3523,526,1000
1784847444.9053,1687,3512,526,1000
1784847444.9073,1700,3521,526,1000
1784847444.9092,1684,3557,526,1000
1784847444.9112,1630,3547,525,1000
1784847444.9132,1666,3538,525,1000
1784847444.9152,1664,3534,525,1000
1784847444.9172,1634,3520,524,1000
1784847444.9188,1647,3519,523,1000
1784847444.9205,1657,3503,523,1000
1784847444.9221,1712,3503,523,1000
1784847444.9238,1690,3489,523,1000
1784847444.9265,1701,3480,523,1000
1784847444.9293,1715,3475,523,1000
1784847444.9320,2220,3506,528,1000
1784847444.9343,1532,3460,527,1000
1784847444.9365,1635,3426,526,1000
1784847444.9388,1660,3452,526,1000
1784847444.9400,1670,3442,525,1000
1784847444.9412,1680,3427,525,1000
1784847444.9424,1747,3426,526,1000
1784847444.9447,1711,3416,526,1000
1784847444.9470,1723,3435,526,1000
1784847444.9492,1700,3408,526,1000
1784847444.9508,1673,3399,525,1000
1784847444.9523,1604,3410,524,1000
1784847444.9539,1622,3393,524,1000
1784847444.9554,1628,3382,523,1000
1784847444.9581,1628,3375,522,1000
1784847444.9607,1633,3372,522,1000
1784847444.9634,1675,3309,521,1000
1784847444.9665,1749,3355,522,1000
1784847444.9696,2181,3353,527,1000
1784847444.9727,1809,3345,528,1000
1784847444.9734,1618,3340,527,1000
1784847444.9740,1580,3336,526,1000
1784847444.9747,1544,3327,524,1000
1784847444.9767,1675,3317,524,1000
1784847444.9788,1681,3308,523,1000
1784847444.9808,1700,3302,523,1000
1784847444.9825,1726,3308,524,1000
1784847444.9842,1708,3290,524,1000
1784847444.9859,1739,3269,524,1000
1784847444.9876,1713,3287,524,1000
1784847444.9914,1603,3293,523,1000
1784847444.9953,1628,3270,522,1000
1784847444.9991,1670,3267,522,1000
1784847444.9995,1665,3259,522,1000
1784847444.9998,1661,3254,521,1000
1784847445.0002,1657,3242,521,1000
1784847445.0023,1708,3253,521,1000
1784847445.0045,1734,3240,521,1000
1784847445.0067,1737,3244,522,1000
1784847445.0087,1724,3230,522,1000
1784847445.0107,1665,3228,521,1000
1784847445.0128,1689,3212,521,1000
1784847445.0144,1725,3211,522,1000
1784847445.0161,1687,3203,521,1000
1784847445.0178,1696,3203,521,1000
1784847445.0195,1695,3195,521,1000
1784847445.0216,1703,3197,521,1000
1784847445.0237,1720,3186,521,1000
1784847445.0258,1715,3196,522,1000
1784847445.0279,1709,3178,522,1000
1784847445.0300,1660,3176,521,1000
1784847445.0321,1666,3166,521,1000
1784847445.0341,1682,3159,521,1000
1784847445.0362,1731,3159,521,1000
1784847445.0382,1695,3148,521,1000
1784847445.0404,1702,3151,521,1000
1784847445.0426,1710,3145,521,1000
1784847445.0448,1725,3128,521,1000
1784847445.0473,1735,3149,521,1000
1784847445.0497,1714,3124,521,1000
1784847445.0521,1664,3117,521,1000
1784847445.0545,1680,3120,521,1000
1784847445.0556,1685,3118,521,1000
1784847445.0567,1679,3108,520,1000
1784847445.0577,1661,3107,520,1000
1784847445.0599,1712,3095,520,1000
1784847445.0620,1733,3084,520,1000
1784847445.0641,1771,3084,521,1000
1784847445.0662,1761,3085,522,1000
1784847445.0682,1721,3049,522,1000
1784847445.0703,1673,3070,521,1000
1784847445.0724,1666,3062,521,1000
1784847445.0746,1682,3055,521,1000
1784847445.0768,1695,3061,521,1000
1784847445.0784,1706,3046,521,1000
1784847445.0799,1653,3059,520,1000
1784847445.0815,1657,3034,520,1000
1784847445.0831,1759,3038,520,1000
1784847445.0853,1774,3044,521,1000
1784847445.0876,1715,3053,521,1000
1784847445.0898,1655,3059,521,1000
1784847445.0919,1670,3037,520,1000
1784847445.0940,1705,3033,520,1000
1784847445.0961,1708,3023,520,1000
1784847445.0981,1680,3025,520,1000
1784847445.1002,1692,3030,520,1000
1784847445.1022,1714,3014,520,1000
1784847445.1044,1728,3005,520,1000
1784847445.1065,1740,3006,521,1000
1784847445.1087,2936,3008,533,1000
1784847445.1114,1625,3030,532,1000
1784847445.1142,1664,2999,531,1000
1784847445.1169,1677,2988,531,1000
1784847445.1196,1662,2983,530,1000
1784847445.1203,1674,2975,530,1000
1784847445.1210,1699,2973,530,1000
1784847445.1217,1673,2974,529,1000
1784847445.1238,1678,2967,529,1000
1784847445.1259,1694,2953,529,1000
1784847445.1279,2888,3054,540,1000
1784847445.1301,1648,3044,540,1000
1784847445.1322,1639,3030,539,1000
1784847445.1343,1628,3036,538,1000
1784847445.1365,1732,3031,538,1000
1784847445.1386,1753,3025,538,1000
1784847445.1408,1695,3021,538,1000
1784847445.1424,1712,3014,538,1000
1784847445.1439,1731,3006,538,1000
1784847445.1455,1716,3005,538,1000
1784847445.1471,1693,2996,537,1000
1784847445.1493,1651,2999,537,1000
1784847445.1515,1676,2989,536,1000
1784847445.1537,1686,2984,536,1000
1784847445.1558,1679,2981,535,1000
1784847445.1579,1687,2976,535,1000
1784847445.1600,1707,2972,535,1000
1784847445.1622,1714,2974,535,1000
1784847445.1644,1815,2961,536,1000
1784847445.1667,1679,2969,535,1000
1784847445.1687,1813,2956,536,1000
1784847445.1707,1650,2960,535,1000
1784847445.1728,1648,2949,534,1000
1784847445.1753,1663,2944,534,1000
1784847445.1779,1685,2937,533,1000
1784847445.1804,1704,2939,533,1000
1784847445.1830,1707,2932,533,1000
1784847445.1839,1798,2927,534,1000
1784847445.1848,1719,2925,534,1000
1784847445.1858,1713,2917,534,1000
1784847445.1878,1713,2922,534,1000
1784847445.1899,1713,2910,533,1000
1784847445.1920,1710,2903,533,1000
1784847445.1941,2577,2907,542,1000
1784847445.1962,1680,2894,541,1000
1784847445.1982,1699,2897,541,1000
1784847445.2004,1696,2892,541,1000
1784847445.2027,1708,2899,540,1000
1784847445.2049,1714,2881,540,1000
1784847445.2064,1712,2883,540,1000
1784847445.2080,1756,2873,540,1000
1784847445.2095,1690,2862,540,1000
1784847445.2111,1676,2872,539,1000
1784847445.2133,1674,2869,539,1000
1784847445.2155,1677,2847,538,1000
1784847445.2177,1682,2851,538,1000
1784847445.2200,1696,2854,537,1000
1784847445.2223,1702,2852,537,1000
1784847445.2245,1672,2854,537,1000
1784847445.2266,1682,2818,536,1000
1784847445.2286,1776,2839,537,1000
1784847445.2307,2371,2941,543,1000
1784847445.2328,1702,2939,543,1000
1784847445.2350,1655,2933,542,1000
1784847445.2372,1646,2931,541,1000
1784847445.2415,1681,2916,540,1000
1784847445.2458,1665,2926,540,1000
1784847445.2501,1690,2917,539,1000
1784847445.2544,1711,2913,539,1000
1784847445.2547,1718,2916,539,1000
1784847445.2550,1704,2907,539,1000
1784847445.2553,1646,2904,538,1000
1784847445.2555,1658,2890,537,1000
1784847445.2557,1669,2894,536,1000
1784847445.2559,1677,2891,536,1000
1784847445.2582,1701,2879,536,1000
1784847445.2604,1726,2886,536,1000
1784847445.2627,1727,2882,536,1000
1784847445.2649,1727,2873,536,1000
1784847445.2670,1725,2884,535,1000
1784847445.2692,1686,2907,535,1000
1784847445.2708,1654,2900,534,1000
1784847445.2724,1669,2900,534,1000
1784847445.2740,1679,2895,533,1000
1784847445.2756,1702,2894,533,1000
1784847445.2778,1712,2887,533,1000
1784847445.2800,1725,2888,533,1000
1784847445.2822,1720,2879,533,1000
1784847445.2844,1727,2875,533,1000
1784847445.2865,1712,2880,532,1000
1784847445.2887,1670,2905,532,1000
1784847445.2907,1700,2904,532,1000
1784847445.2927,1697,2897,531,1000
1784847445.2947,1705,2906,531,1000
1784847445.2969,1704,2897,531,1000
1784847445.2990,1683,2907,530,1000
1784847445.3012,1696,2888,530,1000
1784847445.3028,1723,2891,530,1000
1784847445.3044,1736,2878,530,1000
1784847445.3061,1750,2868,530,1000
1784847445.3077,1703,2954,530,1000
1784847445.3099,1646,2942,529,1000
1784847445.3120,1680,2922,529,1000
1784847445.3142,1724,2936,529,1000
1784847445.3165,1730,2934,529,1000
1784847445.3187,1723,2928,529,1000
1784847445.3209,1732,2923,529,1000
1784847445.3230,1723,2923,529,1000
1784847445.3251,1720,2915,529,1000
1784847445.3272,1728,2920,529,1000
1784847445.3292,1679,2981,528,1000
1784847445.3312,1636,2969,528,1000
1784847445.3332,1646,2956,527,1000
1784847445.3357,1658,2956,526,1000
1784847445.3383,1700,2955,526,1000
1784847445.3409,1710,2952,526,1000
1784847445.3434,1685,2946,525,1000
1784847445.3460,1714,2927,525,1000
1784847445.3486,1726,2932,525,1000
1784847445.3511,1730,2927,525,1000
1784847445.3514,2674,2965,535,1000
1784847445.3518,1610,2986,534,1000
1784847445.3521,1656,2990,533,1000
1784847445.3543,1674,2980,532,1000
1784847445.3565,1685,2991,532,1000
1784847445.3587,1704,2975,531,1000
1784847445.3609,1715,2973,531,1000
1784847445.3631,1738,2970,531,1000
1784847445.3654,1720,2967,531,1000
1784847445.3669,1713,2960,531,1000
1784847445.3685,1692,3002,531,1000
1784847445.3700,1650,2989,530,1000
1784847445.3716,1647,2991,529,1000
1784847445.3738,1664,2990,528,1000
1784847445.3761,1681,2982,528,1000
1784847445.3783,1710,2976,528,1000
1784847445.3804,1718,2977,528,1000
1784847445.3825,1726,2974,528,1000
1784847445.3846,1712,2963,527,1000
1784847445.3866,1736,2958,528,1000
1784847445.3886,1711,3047,527,1000
1784847445.3907,1646,3040,527,1000
1784847445.3929,1663,3026,526,1000
1784847445.3950,1684,3026,525,1000
1784847445.3972,1688,3030,525,1000
1784847445.3988,1668,3024,525,1000
1784847445.4003,1648,3020,524,1000
1784847445.4018,1687,3012,523,1000
1784847445.4034,1784,3008,524,1000
1784847445.4056,1779,3015,524,1000
1784847445.4079,1720,3117,524,1000
1784847445.4101,1669,3103,524,1000
1784847445.4122,1661,3098,523,1000
1784847445.4142,1677,3090,523,1000
1784847445.4162,1701,3089,522,1000
1784847445.4185,1696,3085,522,1000
1784847445.4207,1713,3069,522,1000
1784847445.4229,1714,3070,522,1000
1784847445.4252,1724,3006,522,1000
1784847445.4274,1746,3066,522,1000
1784847445.4297,1703,3093,522,1000
1784847445.4342,1652,3092,521,1000
1784847445.4387,1656,3094,521,1000
1784847445.4432,1669,3085,520,1000
1784847445.4477,1675,3082,520,1000
1784847445.4479,1678,3068,519,1000
1784847445.4481,1708,3071,519,1000
1784847445.4482,1709,3060,519,1000
1784847445.4484,1706,3055,519,1000
1784847445.4485,1716,3036,519,1000
1784847445.4487,1701,3110,518,1000
1784847445.4507,1639,3104,518,1000
1784847445.4527,1661,3099,517,1000
1784847445.4546,1678,3089,516,1000
1784847445.4568,1680,3089,516,1000
1784847445.4590,1693,3077,516,1000
1784847445.4612,1713,3069,516,1000
1784847445.4628,1724,3063,516,1000
1784847445.4644,1728,3062,516,1000
1784847445.4660,1717,3052,516,1000
1784847445.4676,1704,3051,516,1000
1784847445.4697,1723,3047,516,1000
1784847445.4719,1775,3055,516,1000
1784847445.4741,2044,3138,519,1000
1784847445.4762,1654,3150,519,1000
1784847445.4783,1629,3154,518,1000
1784847445.4803,1647,3133,517,1000
1784847445.4824,1740,3136,517,1000
1784847445.4846,1737,3123,517,1000
1784847445.4867,1741,3138,518,1000
1784847445.4888,1693,3146,517,1000
1784847445.4910,1629,3088,516,1000
1784847445.4932,1629,3136,515,1000
1784847445.4948,1668,3135,515,1000
1784847445.4964,1678,3128,514,1000
1784847445.4981,1652,3122,514,1000
1784847445.4997,1690,3125,513,1000
1784847445.5019,1708,3094,513,1000
1784847445.5041,1723,3103,513,1000
1784847445.5062,1724,3109,513,1000
1784847445.5083,1699,3136,513,1000
1784847445.5103,1631,3133,512,1000
1784847445.5123,1654,3130,512,1000
1784847445.5144,1663,3120,511,1000
1784847445.5166,1681,3117,511,1000
1784847445.5187,1693,3114,510,1000
1784847445.5209,1706,3105,510,1000
1784847445.5232,1710,3110,510,1000
1784847445.5255,1724,3082,510,1000
1784847445.5271,1744,3102,511,1000
1784847445.5287,1722,3163,511,1000
1784847445.5303,1643,3156,510,1000
1784847445.5319,1641,3148,509,1000
1784847445.5339,1640,3146,508,1000
1784847445.5359,1670,3136,508,1000
1784847445.5379,1695,3136,508,1000
1784847445.5448,1666,3154,507,1000
1784847445.5518,1663,3120,507,1000
1784847445.5587,1734,3118,507,1000
1784847445.5589,1763,3117,507,1000
1784847445.5590,1771,3125,508,1000
1784847445.5592,1673,3199,507,1000
1784847445.5593,1664,3195,507,1000
1784847445.5595,1697,3190,507,1000
1784847445.5596,1681,3183,506,1000
1784847445.5606,1673,3179,506,1000
1784847445.5615,1662,3170,505,1000
1784847445.5625,1692,3173,505,1000
1784847445.5634,1721,3156,505,1000
1784847445.5657,1726,3176,505,1000
1784847445.5679,1695,3180,505,1000
1784847445.5701,1659,3175,505,1000
1784847445.5722,1660,3166,504,1000
1784847445.5743,1649,3163,503,1000
1784847445.5764,1637,3151,503,1000
1784847445.5785,1698,3161,502,1000
1784847445.5806,1721,3157,503,1000
1784847445.5827,1724,3141,503,1000
1784847445.5848,1731,3131,503,1000
1784847445.5870,1743,3129,503,1000
1784847445.5891,1716,3160,503,1000
1784847445.5907,1646,3160,502,1000
1784847445.5923,1659,3149,502,1000
1784847445.5940,1673,3147,502,1000
1784847445.5956,1671,3139,501,1000
1784847445.5978,1683,3135,501,1000
1784847445.6000,1712,3131,501,1000
1784847445.6022,1711,3129,501,1000
1784847445.6042,1709,3123,501,1000
1784847445.6062,1723,3126,501,1000
1784847445.6082,1702,3195,501,1000
1784847445.6103,1603,3181,500,1000
1784847445.6124,1651,3172,499,1000
1784847445.6145,1728,3176,499,1000
1784847445.6168,1711,3173,499,1000
1784847445.6191,1687,3154,499,1000
1784847445.6214,1713,3151,499,1000
1784847445.6230,1717,3154,499,1000
1784847445.6245,1710,3145,499,1000
1784847445.6260,1724,3136,499,1000
1784847445.6275,1680,3195,499,1000
1784847445.6299,1639,3185,498,1000
1784847445.6324,1655,3185,498,1000
1784847445.6349,1659,3189,497,1000
1784847445.6368,1679,3171,497,1000
1784847445.6387,1675,3155,496,1000
1784847445.6406,1698,3155,496,1000
1784847445.6426,1711,3147,496,1000
1784847445.6447,1722,3150,496,1000
1784847445.6467,1728,3150,497,1000
1784847445.6520,1689,3198,496,1000
1784847445.6572,1636,3192,496,1000
1784847445.6624,1654,3200,495,1000
1784847445.6626,1673,3181,495,1000
1784847445.6627,1678,3139,494,1000
1784847445.6629,1687,3169,494,1000
1784847445.6631,1708,3166,494,1000
1784847445.6640,1726,3159,494,1000
1784847445.6650,1727,3159,495,1000
1784847445.6659,1729,3160,495,1000
1784847445.6680,1710,3207,495,1000
1784847445.6701,1649,3201,494,1000
1784847445.6722,1666,3189,494,1000
1784847445.6743,1679,3187,494,1000
1784847445.6764,1666,3225,493,1000
1784847445.6785,1692,3181,493,1000
1784847445.6807,1698,3173,493,1000
1784847445.6829,1701,3164,493,1000
1784847445.6851,1714,3199,493,1000
1784847445.6866,1712,3141,493,1000
1784847445.6882,1710,3195,493,1000
1784847445.6898,1635,3195,492,1000
1784847445.6913,1650,3193,492,1000
1784847445.6937,1669,3179,491,1000
1784847445.6961,1680,3219,491,1000
1784847445.6985,1694,3170,491,1000
1784847445.7006,1706,3174,491,1000
1784847445.7027,1720,3156,491,1000
1784847445.7049,1740,3151,491,1000
1784847445.7070,1722,3150,491,1000
1784847445.7091,2906,3199,503,1000
1784847445.7112,1617,3192,502,1000
1784847445.7132,1663,3194,502,1000
1784847445.7152,1655,3173,501,1000
1784847445.7172,1660,3177,501,1000
1784847445.7189,1675,3169,500,1000
1784847445.7205,1697,3166,500,1000
1784847445.7222,1702,3163,500,1000
1784847445.7239,1714,3151,500,1000
1784847445.7261,1725,3218,500,1000
1784847445.7282,1726,3208,500,1000
1784847445.7303,1630,3199,499,1000
1784847445.7324,1642,3194,498,1000
1784847445.7345,1667,3188,498,1000
1784847445.7366,1665,3186,497,1000
1784847445.7387,1686,3183,497,1000
1784847445.7408,1769,3179,498,1000
1784847445.7429,1746,3170,498,1000
1784847445.7449,1740,3168,498,1000
1784847445.7469,1709,3162,498,1000
1784847445.7489,1651,3152,497,1000
1784847445.7505,1626,3148,496,1000
1784847445.7521,1706,3140,496,1000
1784847445.7537,1710,3139,496,1000
1784847445.7553,1690,3129,496,1000
1784847445.7575,1695,3124,496,1000
1784847445.7597,1711,3135,496,1000
1784847445.7620,1720,3125,496,1000
1784847445.7640,1722,3111,496,1000
1784847445.7661,1720,3115,496,1000
1784847445.7682,1729,3183,496,1000
1784847445.7703,1645,3171,495,1000
1784847445.7725,1653,3168,495,1000
1784847445.7746,1667,3165,494,1000
1784847445.7767,1678,3155,494,1000
1784847445.7789,1683,3145,494,1000
1784847445.7810,1715,3143,494,1000
1784847445.7827,1714,3140,494,1000
1784847445.7845,1715,3137,494,1000
1784847445.7862,1740,3137,494,1000
1784847445.7879,1721,3197,494,1000
1784847445.7902,1572,3179,493,1000
1784847445.7924,1570,3170,491,1000
1784847445.7946,1695,3169,491,1000
1784847445.7966,1713,3167,491,1000
1784847445.7986,1731,3165,491,1000
1784847445.8006,1722,3150,491,1000
1784847445.8028,1738,3150,492,1000
1784847445.8049,1733,3137,492,1000
1784847445.8070,1713,3147,492,1000
1784847445.8091,1669,3189,491,1000
1784847445.8112,1627,3142,490,1000
1784847445.8134,1655,3141,490,1000
1784847445.8155,1671,3127,490,1000
1784847445.8176,1680,3130,489,1000
1784847445.8197,1685,3115,489,1000
1784847445.8218,1706,3112,489,1000
1784847445.8232,1717,3107,489,1000
1784847445.8246,1715,3109,489,1000
1784847445.8260,1733,3106,489,1000
1784847445.8280,1721,3160,489,1000
1784847445.8301,1631,3151,489,1000
1784847445.8322,1652,3145,488,1000
1784847445.8343,1683,3157,488,1000
1784847445.8364,1688,3144,487,1000
1784847445.8384,1701,3136,487,1000
1784847445.8409,1698,3125,487,1000
1784847445.8433,1703,3135,487,1000
1784847445.8458,1740,3118,487,1000
1784847445.8471,1748,3122,488,1000
1784847445.8485,1694,3167,488,1000
1784847445.8499,1644,3157,487,1000
1784847445.8513,1666,3156,487,1000
1784847445.8541,1674,3153,486,1000
1784847445.8568,1677,3150,486,1000
1784847445.8596,1678,3145,486,1000
1784847445.8612,1696,3181,485,1000
1784847445.8627,1731,3127,486,1000
1784847445.8643,1669,3127,485,1000
1784847445.8668,1709,3130,485,1000
1784847445.8693,1735,3169,485,1000
1784847445.8719,1671,3160,485,1000
1784847445.8736,1667,3152,485,1000
1784847445.8753,1665,3145,484,1000
1784847445.8770,1683,3133,484,1000
1784847445.8787,1690,3133,484,1000
1784847445.8804,1700,3132,484,1000
1784847445.8821,1737,3125,484,1000
1784847445.8838,1709,3146,484,1000
1784847445.8860,1743,3063,484,1000
1784847445.8883,1689,3169,484,1000
1784847445.8905,1648,3155,484,1000
1784847445.8942,1661,3150,483,1000
1784847445.8978,1689,3129,483,1000
1784847445.9015,1676,3138,483,1000
1784847445.9017,1665,3129,482,1000
1784847445.9019,1688,3123,482,1000
1784847445.9021,1712,3124,482,1000
1784847445.9044,1707,3123,482,1000
1784847445.9067,1718,3111,482,1000
1784847445.9090,3003,3135,495,1000
1784847445.9107,1613,3095,494,1000
1784847445.9123,1668,3089,493,1000
1784847445.9139,1678,3082,493,1000
1784847445.9156,1664,3091,492,1000
1784847445.9178,1680,3067,492,1000
1784847445.9200,1714,3069,492,1000
1784847445.9222,1713,3076,492,1000
1784847445.9243,1712,3062,492,1000
1784847445.9264,1728,3056,492,1000
1784847445.9286,2529,3154,500,1000
1784847445.9306,1653,3088,499,1000
1784847445.9326,1646,3136,498,1000
1784847445.9347,1669,3130,498,1000
1784847445.9368,1691,3127,498,1000
1784847445.9390,1695,3117,497,1000
1784847445.9412,1709,3122,497,1000
1784847445.9429,1665,3114,496,1000
1784847445.9447,1681,3108,496,1000
1784847445.9465,1755,3103,496,1000
1784847445.9482,1744,3096,497,1000
1784847445.9504,3002,3154,509,1000
1784847445.9525,1626,3142,508,1000
1784847445.9546,1656,3141,507,1000
1784847445.9570,1660,3140,507,1000
1784847445.9594,1680,3132,506,1000
1784847445.9618,1722,3125,506,1000
1784847445.9634,1726,3111,506,1000
1784847445.9651,1727,3121,506,1000
1784847445.9667,1713,3118,506,1000
1784847445.9689,1684,3155,505,1000
1784847445.9711,1645,3125,504,1000
1784847445.9733,1627,3112,503,1000
1784847445.9749,1654,3110,502,1000
1784847445.9765,1678,3104,502,1000
1784847445.9781,1704,3101,501,1000
1784847445.9798,1705,3086,501,1000
1784847445.9872,1693,3097,501,1000
1784847445.9947,1714,3081,501,1000
1784847446.0022,1736,3070,501,1000
1784847446.0026,2024,3131,504,1000
1784847446.0030,1652,3129,503,1000
1784847446.0034,1657,3123,502,1000
1784847446.0038,1679,3122,502,1000
1784847446.0042,1693,3120,501,1000
1784847446.0046,1692,3118,501,1000
1784847446.0049,1704,3116,500,1000
1784847446.0052,1696,3069,500,1000
1784847446.0054,1707,3099,500,1000
1784847446.0069,1720,3101,500,1000
1784847446.0084,1711,3123,500,1000
1784847446.0099,1640,3128,499,1000
1784847446.0114,1676,3120,498,1000
1784847446.0137,1691,3116,498,1000
1784847446.0159,1680,3106,497,1000
1784847446.0182,1693,3114,497,1000
1784847446.0203,1698,3091,497,1000
1784847446.0224,1708,3085,496,1000
1784847446.0245,1713,3089,496,1000
1784847446.0266,1679,3082,496,1000
1784847446.0286,3085,3133,509,1000
1784847446.0306,1653,3101,508,1000
1784847446.0328,1681,3091,508,1000
1784847446.0350,1679,3076,507,1000
1784847446.0372,1701,3087,507,1000
1784847446.0388,1706,3079,506,1000
1784847446.0404,1697,3070,506,1000
1784847446.0420,1711,3065,506,1000
1784847446.0435,1730,3060,506,1000
1784847446.0461,1736,3072,506,1000
1784847446.0487,1707,3132,505,1000
1784847446.0513,1639,3127,504,1000
1784847446.0531,1650,3129,503,1000
1784847446.0548,1678,3122,503,1000
1784847446.0566,1687,3117,502,1000
1784847446.0587,1706,3110,502,1000
1784847446.0608,1714,3105,502,1000
1784847446.0630,1738,3094,502,1000
1784847446.0651,1733,3092,502,1000
1784847446.0673,1710,3108,502,1000
1784847446.0695,1679,3108,501,1000
1784847446.0712,1617,3114,500,1000
1784847446.0728,1648,3097,499,1000
1784847446.0745,1673,3061,498,1000
1784847446.0761,1687,3087,498,1000
1784847446.0782,1684,3086,497,1000
1784847446.0802,1708,3081,497,1000
1784847446.0823,1700,3069,497,1000
1784847446.0844,1693,3069,496,1000
1784847446.0866,1717,3068,496,1000
1784847446.0887,1721,3139,496,1000
1784847446.0909,1662,3136,495,1000
1784847446.0931,1678,3125,495,1000
1784847446.0952,1699,3124,495,1000
1784847446.0982,1695,3122,494,1000
1784847446.1011,1712,3113,494,1000
1784847446.1040,1718,3100,494,1000
1784847446.1069,1713,3089,494,1000
1784847446.1098,1726,3099,494,1000
1784847446.1127,1704,3097,494,1000
1784847446.1156,1698,3130,493,1000
1784847446.1159,1648,3121,492,1000
1784847446.1162,1659,3120,492,1000
1784847446.1166,1665,3113,491,1000
1784847446.1178,1672,3113,491,1000
1784847446.1191,1683,3060,490,1000
1784847446.1204,1671,3090,490,1000
1784847446.1225,1685,3095,489,1000
1784847446.1246,1778,3087,490,1000
1784847446.1266,1750,3080,490,1000
1784847446.1288,1719,3166,490,1000
1784847446.1310,1634,3152,489,1000
1784847446.1332,1647,3148,488,1000
1784847446.1348,1669,3154,487,1000
1784847446.1364,1688,3141,487,1000
1784847446.1379,1702,3134,487,1000
1784847446.1395,1699,3125,487,1000
1784847446.1417,1714,3125,487,1000
1784847446.1439,1721,3122,486,1000
1784847446.1460,1733,3125,487,1000
1784847446.1484,1787,3131,487,1000
1784847446.1508,1662,3161,487,1000
1784847446.1532,1661,3156,486,1000
1784847446.1551,1673,3142,485,1000
1784847446.1569,1674,3144,485,1000
1784847446.1587,1677,3136,484,1000
1784847446.1609,1692,3129,484,1000
1784847446.1631,1724,3125,484,1000
1784847446.1653,1719,3120,484,1000
1784847446.1669,1728,3130,484,1000
1784847446.1684,1692,3162,484,1000
1784847446.1700,1654,3154,483,1000
1784847446.1716,1658,3150,483,1000
1784847446.1738,1673,3151,482,1000
1784847446.1760,1694,3139,482,1000
1784847446.1783,1720,3135,482,1000
1784847446.1804,1695,3140,481,1000
1784847446.1825,1708,3123,481,1000
1784847446.1845,1707,3122,481,1000
1784847446.1866,1670,3130,481,1000
1784847446.1886,1674,3129,480,1000
1784847446.1907,1684,3121,480,1000
1784847446.1928,1651,3115,479,1000
1784847446.1950,1679,3110,479,1000
1784847446.1971,1701,3111,479,1000
1784847446.1987,1709,3096,479,1000
1784847446.2003,1711,3089,478,1000
1784847446.2019,1716,3092,478,1000
1784847446.2035,1726,3079,478,1000
1784847446.2119,1732,3095,479,1000
1784847446.2203,1691,3175,478,1000
1784847446.2286,1646,3167,478,1000
1784847446.2287,1660,3159,477,1000
1784847446.2288,1650,3157,476,1000
1784847446.2289,1678,3159,476,1000
1784847446.2290,1704,3145,476,1000
1784847446.2291,1700,3146,476,1000
1784847446.2292,1706,3136,476,1000
1784847446.2293,1717,3128,476,1000
1784847446.2293,1733,3130,476,1000
1784847446.2294,1745,3136,476,1000
1784847446.2309,1704,3070,476,1000
1784847446.2324,1617,3129,475,1000
1784847446.2339,1631,3123,474,1000
1784847446.2354,1653,3120,473,1000
1784847446.2376,1672,3110,473,1000
1784847446.2399,1677,3105,473,1000
1784847446.2421,1678,3104,472,1000
1784847446.2442,1703,3091,472,1000
1784847446.2463,2063,3099,476,1000
1784847446.2484,1649,3150,475,1000
1784847446.2506,1595,3134,474,1000
1784847446.2529,1619,3145,473,1000
1784847446.2551,1648,3134,472,1000
1784847446.2571,1654,3132,471,1000
1784847446.2591,1671,3110,471,1000
1784847446.2611,1690,3122,471,1000
1784847446.2627,1711,3113,471,1000
1784847446.2643,1704,3101,471,1000
1784847446.2659,1701,3115,470,1000
1784847446.2675,1697,3115,470,1000
1784847446.2697,1635,3107,469,1000
1784847446.2719,1607,3108,468,1000
1784847446.2741,1669,3101,468,1000
1784847446.2762,1746,3102,468,1000
1784847446.2783,1746,3086,469,1000
1784847446.2804,1737,3086,469,1000
1784847446.2824,1736,3078,469,1000
1784847446.2844,1728,3073,469,1000
1784847446.2865,1724,3072,469,1000
1784847446.2888,1724,3146,469,1000
1784847446.2910,1649,3140,469,1000
1784847446.2933,1670,3133,468,1000
1784847446.2948,1677,3133,468,1000
1784847446.2963,1684,3121,468,1000
1784847446.2978,1687,3057,468,1000
1784847446.2994,1703,3108,467,1000
1784847446.3016,1711,3102,467,1000
1784847446.3038,1703,3102,467,1000
1784847446.3060,1713,3102,467,1000
1784847446.3081,1711,3145,467,1000
1784847446.3101,1673,3121,467,1000
1784847446.3122,1678,3127,467,1000
1784847446.3143,1676,3119,466,1000
1784847446.3164,1674,3109,466,1000
1784847446.3185,1692,3162,466,1000
1784847446.3206,1713,3106,466,1000
1784847446.3226,1717,3096,466,1000
1784847446.3247,1721,3089,466,1000
1784847446.3268,1723,3097,466,1000
1784847446.3288,1701,3120,466,1000
1784847446.3309,1651,3130,465,1000
1784847446.3330,1660,3124,465,1000
1784847446.3350,1668,3109,464,1000
1784847446.3371,1685,3112,464,1000
1784847446.3392,1704,3109,464,1000
1784847446.3409,1704,3105,464,1000
1784847446.3426,1711,3097,464,1000
1784847446.3443,1709,3066,464,1000
1784847446.3464,1724,3086,464,1000
1784847446.3484,1704,3131,464,1000
1784847446.3505,1595,3126,463,1000
1784847446.3529,1674,3121,462,1000
1784847446.3552,1706,3112,462,1000
1784847446.3576,1712,3107,462,1000
1784847446.3590,1708,3098,462,1000
1784847446.3604,1714,3096,462,1000
1784847446.3618,1728,3094,463,1000
1784847446.3632,1725,3085,463,1000
1784847446.3655,1728,3084,463,1000
1784847446.3677,1673,3128,463,1000
1784847446.3700,1640,3122,462,1000
1784847446.3721,1626,3074,461,1000
1784847446.3742,1653,3119,460,1000
1784847446.3762,1710,3100,460,1000
1784847446.3783,1711,3098,460,1000
1784847446.3804,1732,3098,461,1000
1784847446.3825,1694,3088,461,1000
1784847446.3847,1697,3085,460,1000
1784847446.3868,1735,3084,461,1000
1784847446.3890,1712,3147,461,1000
1784847446.3906,1645,3140,460,1000
1784847446.3922,1659,3133,460,1000
1784847446.3939,1683,3130,459,1000
1784847446.3955,1690,3124,459,1000
1784847446.3976,1708,3119,459,1000
1784847446.3997,1697,3115,459,1000
1784847446.4018,1712,3107,459,1000
1784847446.4038,1727,3108,459,1000
1784847446.4059,1736,3104,459,1000
1784847446.4079,1719,3138,460,1000
1784847446.4100,1640,3140,459,1000
1784847446.4121,1664,3128,458,1000
1784847446.4142,1647,3124,458,1000
1784847446.4164,1620,3114,457,1000
1784847446.4185,1672,3113,457,1000
1784847446.4207,1760,3110,457,1000
1784847446.4223,1750,3115,458,1000
1784847446.4239,1731,3103,458,1000
1784847446.4254,1736,3102,458,1000
1784847446.4270,1711,3144,458,1000
1784847446.4320,1647,3134,457,1000
1784847446.4370,1665,3127,457,1000
1784847446.4419,1659,3118,457,1000
1784847446.4421,1673,3120,456,1000
1784847446.4423,1704,3119,456,1000
1784847446.4424,1695,3105,456,1000
1784847446.4437,1709,3105,456,1000
1784847446.4450,1719,3108,456,1000
1784847446.4462,1718,3093,456,1000
1784847446.4484,1833,3121,458,1000
1784847446.4506,1648,3133,457,1000
1784847446.4528,1678,3115,457,1000
1784847446.4544,1680,3112,456,1000
1784847446.4561,1688,3115,456,1000
1784847446.4578,1686,3095,456,1000
1784847446.4594,1707,3088,456,1000
1784847446.4616,1709,3066,456,1000
1784847446.4637,1713,3082,456,1000
1784847446.4658,1742,3081,456,1000
1784847446.4680,1702,3136,456,1000
1784847446.4702,1662,3074,456,1000
1784847446.4724,1664,3134,455,1000
1784847446.4745,1669,3121,455,1000
1784847446.4766,1679,3118,455,1000
1784847446.4786,1706,3110,455,1000
1784847446.4810,1704,3105,455,1000
1784847446.4833,1692,3096,454,1000
1784847446.4856,1696,3093,454,1000
1784847446.4872,1720,3100,454,1000
1784847446.4887,1715,3132,455,1000
1784847446.4902,1643,3129,454,1000
1784847446.4917,1661,3129,453,1000
1784847446.4939,1670,3119,453,1000
1784847446.4961,1692,3121,453,1000
1784847446.4983,1651,3108,452,1000
1784847446.5005,1669,3104,452,1000
1784847446.5027,1764,3103,453,1000
1784847446.5048,1753,3099,453,1000
1784847446.5112,1746,3101,453,1000
1784847446.5177,1685,3187,453,1000
1784847446.5241,1650,3125,453,1000
1784847446.5242,1666,3118,452,1000
1784847446.5244,1675,3114,452,1000
1784847446.5246,1680,3109,452,1000
1784847446.5248,1693,3100,451,1000
1784847446.5249,1703,3098,451,1000
1784847446.5251,1712,3091,452,1000
1784847446.5253,1720,3085,452,1000
1784847446.5268,1726,3095,452,1000
1784847446.5284,1734,3142,452,1000
1784847446.5299,1673,3143,452,1000
1784847446.5320,1667,3136,451,1000
1784847446.5341,1654,3129,451,1000
1784847446.5362,1669,3119,450,1000
1784847446.5383,1678,3118,450,1000
1784847446.5405,1678,3111,450,1000
1784847446.5426,1690,3107,450,1000
1784847446.5447,1714,3104,450,1000
1784847446.5469,1703,3102,450,1000
1784847446.5490,1689,3129,450,1000
1784847446.5506,1671,3114,449,1000
1784847446.5522,1682,3116,449,1000
1784847446.5538,1691,3108,449,1000
1784847446.5554,1690,3100,449,1000
1784847446.5578,1697,3098,449,1000
1784847446.5602,1714,3092,449,1000
1784847446.5626,1721,3087,449,1000
1784847446.5647,1716,3087,449,1000
1784847446.5667,1727,3077,449,1000
1784847446.5687,2331,3135,456,1000
1784847446.5709,1640,3119,455,1000
1784847446.5730,1660,3127,454,1000
1784847446.5752,1658,3114,454,1000
1784847446.5772,1676,3105,453,1000
1784847446.5791,1701,3101,453,1000
1784847446.5811,1649,3103,453,1000
1784847446.5830,1674,3086,452,1000
1784847446.5849,1798,3100,453,1000
1784847446.5868,1792,3091,454,1000
1784847446.5887,1737,3191,454,1000
1784847446.5905,1659,3184,454,1000
1784847446.5923,1654,3182,453,1000
1784847446.5941,1670,3177,453,1000
1784847446.5963,1670,3170,452,1000
1784847446.5985,1682,3165,452,1000
1784847446.6008,1696,3152,452,1000
1784847446.6073,1715,3152,452,1000
1784847446.6137,1711,3127,452,1000
1784847446.6202,1712,3149,452,1000
1784847446.6203,1690,3183,452,1000
1784847446.6204,1619,3184,451,1000
1784847446.6205,1639,3173,450,1000
1784847446.6206,1670,3168,450,1000
1784847446.6207,1700,3154,450,1000
1784847446.6208,1715,3157,450,1000
1784847446.6209,1723,3162,450,1000
1784847446.6226,1726,3148,450,1000
1784847446.6243,1717,3144,450,1000
1784847446.6260,1727,3148,450,1000
1784847446.6281,1694,3157,450,1000
1784847446.6301,1636,3251,449,1000
1784847446.6322,1647,3181,449,1000
1784847446.6343,1663,3178,448,1000
1784847446.6364,1670,3169,448,1000
1784847446.6385,1683,3172,448,1000
1784847446.6407,1695,3161,448,1000
1784847446.6430,1719,3155,448,1000
1784847446.6452,1734,3148,448,1000
1784847446.6467,1741,3157,448,1000
1784847446.6483,1651,3180,448,1000
1784847446.6498,1604,3172,447,1000
1784847446.6514,1710,3174,447,1000
1784847446.6537,1716,3176,447,1000
1784847446.6560,1711,3163,447,1000
1784847446.6583,1691,3148,447,1000
1784847446.6606,1701,3146,447,1000
1784847446.6630,1718,3146,447,1000
1784847446.6653,1713,3137,447,1000
1784847446.6671,1726,3139,447,1000
1784847446.6689,1708,3195,447,1000
1784847446.6708,1641,3176,446,1000
1784847446.6730,1648,3175,446,1000
1784847446.6753,1667,3174,445,1000
1784847446.6776,1666,3163,445,1000
1784847446.6791,1675,3150,445,1000
1784847446.6806,1685,3152,444,1000
1784847446.6821,1719,3154,444,1000
1784847446.6837,1715,3140,445,1000
1784847446.6859,1730,3145,445,1000
1784847446.6882,1711,3192,445,1000
1784847446.6904,1649,3185,444,1000
1784847446.6925,1660,3182,444,1000
1784847446.6947,1675,3170,443,1000
1784847446.6968,1682,3175,443,1000
1784847446.6987,1692,3157,443,1000
1784847446.7007,1701,3155,443,1000
1784847446.7026,1711,3149,443,1000
1784847446.7046,1726,3147,443,1000
1784847446.7066,1732,3149,444,1000
1784847446.7085,1701,3191,443,1000
1784847446.7105,1625,3189,443,1000
1784847446.7125,1647,3177,442,1000
1784847446.7144,1685,3176,442,1000
1784847446.7164,1679,3172,442,1000
1784847446.7182,1691,3156,441,1000
1784847446.7201,1699,3164,441,1000
1784847446.7219,1700,3150,441,1000
1784847446.7241,1662,3151,441,1000
1784847446.7262,1716,3142,441,1000
1784847446.7284,1814,3219,442,1000
1784847446.7304,1686,3215,442,1000
1784847446.7325,1664,3206,442,1000
1784847446.7345,1670,3207,441,1000
1784847446.7367,1685,3204,441,1000
1784847446.7388,1683,3194,441,1000
1784847446.7410,1709,3189,441,1000
1784847446.7426,1708,3181,441,1000
1784847446.7442,1717,3179,441,1000
1784847446.7457,1728,3183,441,1000
1784847446.7473,1710,3198,441,1000
1784847446.7496,1644,3191,441,1000
1784847446.7519,1660,3189,440,1000
1784847446.7541,1678,3182,440,1000
1784847446.7563,1684,3181,440,1000
1784847446.7585,1662,3175,439,1000
1784847446.7608,1687,3158,439,1000
1784847446.7631,1712,3161,439,1000
1784847446.7655,1718,3153,439,1000
1784847446.7679,1717,3164,439,1000
1784847446.7697,1699,3176,439,1000
1784847446.7716,1653,3174,439,1000
1784847446.7735,1665,3170,438,1000
1784847446.7750,1669,3163,438,1000
1784847446.7766,1691,3157,438,1000
1784847446.7782,1702,3150,438,1000
1784847446.7797,1699,3144,438,1000
1784847446.7819,1701,3133,438,1000
1784847446.7841,1709,3141,438,1000
1784847446.7863,1726,3138,438,1000
1784847446.7884,1720,3191,438,1000
1784847446.7905,1642,3182,438,1000
1784847446.7926,1651,3171,437,1000
1784847446.7956,1656,3166,437,1000
1784847446.7987,1686,3147,436,1000
1784847446.8017,1705,3159,436,1000
1784847446.8047,1711,3143,437,1000
1784847446.8077,1719,3151,437,1000
1784847446.8107,1733,3146,437,1000
1784847446.8109,1731,3141,437,1000
1784847446.8111,1707,3183,437,1000
1784847446.8113,1638,3183,437,1000
1784847446.8115,1654,3172,436,1000
1784847446.8137,1646,3166,436,1000
1784847446.8159,1624,3168,435,1000
1784847446.8182,1685,3156,435,1000
1784847446.8203,1746,3152,435,1000
1784847446.8224,1758,3147,436,1000
1784847446.8246,1743,3144,436,1000
1784847446.8266,1733,3149,436,1000
1784847446.8287,1704,3186,436,1000
1784847446.8307,1656,3187,436,1000
1784847446.8329,1648,3183,435,1000
1784847446.8350,1642,3122,435,1000
1784847446.8372,1670,3165,434,1000
1784847446.8388,1690,3154,434,1000
1784847446.8404,1700,3154,434,1000
1784847446.8420,1707,3149,434,1000
1784847446.8436,1719,3138,434,1000
1784847446.8458,1725,3132,435,1000
1784847446.8480,1725,3125,435,1000
1784847446.8502,2488,3182,443,1000
1784847446.8523,1619,3173,442,1000
1784847446.8543,1640,3165,441,1000
1784847446.8564,1673,3161,441,1000
1784847446.8585,1699,3152,440,1000
1784847446.8606,1707,3145,440,1000
1784847446.8628,1714,3142,440,1000
1784847446.8655,1718,3144,441,1000
1784847446.8683,1731,3150,441,1000
1784847446.8711,1711,3131,441,1000
1784847446.8726,1662,3125,440,1000
1784847446.8740,1666,3118,440,1000
1784847446.8755,1657,3114,439,1000
1784847446.8769,1673,3118,439,1000
1784847446.8787,1709,3106,439,1000
1784847446.8804,1709,3098,439,1000
1784847446.8822,1704,3106,439,1000
1784847446.8847,1711,3091,439,1000
1784847446.8872,1673,3099,439,1000
1784847446.8897,1658,3116,438,1000
1784847446.8973,1666,3118,438,1000
1784847446.9049,1689,3104,437,1000
1784847446.9125,1702,3103,437,1000
1784847446.9126,1719,3095,437,1000
1784847446.9128,1711,3087,437,1000
1784847446.9129,1710,3081,437,1000
1784847446.9130,1709,3081,437,1000
1784847446.9132,1729,3082,438,1000
1784847446.9133,1700,3063,438,1000
1784847446.9134,2612,3097,447,1000
1784847446.9137,1591,3147,445,1000
1784847446.9140,1645,3150,445,1000
1784847446.9143,1661,3156,444,1000
1784847446.9163,1672,3144,444,1000
1784847446.9184,1673,3134,443,1000
1784847446.9204,1686,3136,443,1000
1784847446.9225,1696,3126,443,1000
1784847446.9246,1704,3121,443,1000
1784847446.9267,1743,3121,443,1000
1784847446.9289,1727,3191,443,1000
1784847446.9310,1648,3201,442,1000
1784847446.9332,1662,3179,442,1000
1784847446.9348,1677,3183,441,1000
1784847446.9364,1701,3160,441,1000
1784847446.9380,1713,3158,441,1000
1784847446.9396,1713,3153,441,1000
1784847446.9418,1719,3157,441,1000
1784847446.9441,1728,3148,441,1000
1784847446.9463,1722,3145,441,1000
1784847446.9483,3087,3185,455,1000
1784847446.9503,1478,3167,453,1000
1784847446.9524,1540,3166,451,1000
1784847446.9545,1588,3158,449,1000
1784847446.9566,1613,3150,448,1000
1784847446.9586,1620,3149,447,1000
1784847446.9609,1636,3146,446,1000
1784847446.9633,1666,3143,446,1000
1784847446.9656,1692,3129,446,1000
1784847446.9676,1669,3125,445,1000
1784847446.9696,1652,3123,444,1000
1784847446.9716,3006,3171,457,1000
1784847446.9737,1658,3212,457,1000
1784847446.9753,1692,3160,456,1000
1784847446.9769,1682,3153,456,1000
1784847446.9785,1689,3148,455,1000
1784847446.9806,1690,3138,455,1000
1784847446.9827,1685,3128,454,1000
1784847446.9849,1699,3128,454,1000
1784847446.9868,1715,3140,454,1000
1784847446.9888,1698,3174,454,1000
1784847446.9907,1618,3169,453,1000
1784847446.9930,1635,3158,452,1000
1784847446.9953,1639,3149,451,1000
1784847446.9975,1664,3151,450,1000
1784847446.9991,1715,3151,450,1000
1784847447.0007,1713,3139,450,1000
1784847447.0022,1746,3134,450,1000
1784847447.0038,1763,3128,450,1000
1784847447.0070,1753,3136,451,1000
1784847447.0102,1700,3199,450,1000
1784847447.0134,1659,3190,450,1000
1784847447.0165,1680,3184,449,1000
1784847447.0197,1683,3189,449,1000
1784847447.0229,1670,3180,448,1000
1784847447.0232,1680,3167,448,1000
1784847447.0235,1694,3165,448,1000
1784847447.0238,1706,3158,447,1000
1784847447.0256,1703,3150,447,1000
1784847447.0273,1715,3149,447,1000
1784847447.0291,1707,3206,447,1000
1784847447.0307,1640,3179,446,1000
1784847447.0323,1650,3177,445,1000
1784847447.0339,1664,3167,445,1000
1784847447.0356,1682,3162,444,1000
1784847447.0378,1697,3158,444,1000
1784847447.0400,1662,3147,443,1000
1784847447.0422,1672,3147,443,1000
1784847447.0442,1761,3141,443,1000
1784847447.0463,1767,3138,444,1000
1784847447.0483,1755,3196,444,1000
1784847447.0504,1649,3228,443,1000
1784847447.0525,1671,3216,443,1000
1784847447.0546,1678,3213,442,1000
1784847447.0568,1684,3205,442,1000
1784847447.0590,1699,3199,442,1000
1784847447.0612,1707,3195,442,1000
1784847447.0628,1723,3197,442,1000
1784847447.0644,1721,3184,442,1000
1784847447.0660,1732,3184,442,1000
1784847447.0675,1698,3202,442,1000
1784847447.0700,1645,3200,441,1000
1784847447.0725,1657,3192,440,1000
1784847447.0750,1635,3189,439,1000
1784847447.0769,1645,3176,439,1000
1784847447.0788,1673,3168,438,1000
1784847447.0807,1705,3175,438,1000
1784847447.0828,1718,3162,438,1000
1784847447.0850,1732,3162,438,1000
1784847447.0871,1740,3158,439,1000
1784847447.0893,1739,3155,439,1000
1784847447.0914,1744,3159,439,1000
1784847447.0936,1652,3201,438,1000
1784847447.0951,1660,3189,438,1000
1784847447.0966,1672,3184,437,1000
1784847447.0981,1689,3175,437,1000
1784847447.0996,1673,3179,437,1000
1784847447.1018,1700,3171,436,1000
1784847447.1039,1711,3166,436,1000
1784847447.1061,1671,3160,436,1000
1784847447.1082,2760,3154,446,1000
1784847447.1103,1659,3147,446,1000
1784847447.1124,1678,3147,445,1000
1784847447.1198,1683,3140,445,1000
1784847447.1273,1666,3133,444,1000
1784847447.1347,1685,3127,444,1000
1784847447.1348,1699,3123,443,1000
1784847447.1349,1701,3118,443,1000
1784847447.1351,1720,3118,443,1000
1784847447.1352,1730,3126,443,1000
1784847447.1353,1699,3167,443,1000
1784847447.1354,1637,3158,442,1000
1784847447.1356,1644,3157,441,1000
1784847447.1364,1667,3138,441,1000
1784847447.1373,1680,3143,440,1000
1784847447.1381,1693,3132,440,1000
1784847447.1402,1695,3126,440,1000
1784847447.1424,1707,3115,440,1000
1784847447.1446,1710,3115,439,1000
1784847447.1467,1730,3119,440,1000
1784847447.1489,1727,3171,440,1000
1784847447.1510,1643,3159,439,1000
1784847447.1531,1680,3146,438,1000
1784847447.1551,1667,3151,438,1000
1784847447.1572,1682,3145,437,1000
1784847447.1588,1695,3143,437,1000
1784847447.1603,1711,3135,437,1000
1784847447.1619,1711,3131,437,1000
1784847447.1635,1730,3121,437,1000
1784847447.1658,1733,3125,437,1000
1784847447.1680,1736,3161,437,1000
1784847447.1702,1646,3140,437,1000
1784847447.1725,1648,3144,436,1000
1784847447.1747,1663,3138,435,1000
1784847447.1770,1674,3131,435,1000
1784847447.1789,1690,3130,435,1000
1784847447.1808,1708,3130,435,1000
1784847447.1827,1710,3119,434,1000
1784847447.1849,1713,3114,434,1000
1784847447.1870,1742,3091,435,1000
1784847447.1892,1973,3095,437,1000
1784847447.1909,1647,3098,436,1000
1784847447.1925,1660,3091,436,1000
1784847447.1942,1678,3091,435,1000
1784847447.1959,1701,3078,435,1000
1784847447.1981,1710,3072,435,1000
1784847447.2004,1653,3065,434,1000
1784847447.2027,1670,3061,434,1000
1784847447.2047,1754,3057,434,1000
1784847447.2068,1757,3054,435,1000
1784847447.2088,1735,3137,435,1000
1784847447.2108,1662,3125,434,1000
1784847447.2128,1678,3116,434,1000
1784847447.2147,1678,3114,433,1000
1784847447.2169,1658,3107,433,1000
1784847447.2190,1688,3108,433,1000
1784847447.2212,1716,3094,433,1000
1784847447.2270,1733,3093,433,1000
1784847447.2328,1724,3096,433,1000
1784847447.2387,1730,3087,433,1000
1784847447.2445,2623,3062,442,1000
1784847447.2450,1604,3102,441,1000
1784847447.2454,1657,3120,440,1000
1784847447.2459,1648,3092,439,1000
1784847447.2464,1675,3091,439,1000
1784847447.2469,1695,3088,438,1000
1784847447.2473,1677,3084,438,1000
1784847447.2476,1701,3104,438,1000
1784847447.2479,1732,3074,438,1000
1784847447.2482,1756,3073,438,1000
1784847447.2498,1718,3112,438,1000
1784847447.2515,1632,3100,437,1000
1784847447.2531,1644,3089,436,1000
1784847447.2547,1681,3093,436,1000
1784847447.2564,1680,3081,435,1000
1784847447.2580,1682,3076,435,1000
1784847447.2596,1681,3064,435,1000
1784847447.2618,1709,3061,434,1000
1784847447.2640,1721,3064,434,1000
1784847447.2662,1739,3066,435,1000
1784847447.2683,1726,3104,435,1000
1784847447.2703,1664,3107,434,1000
1784847447.2724,1672,3095,434,1000
1784847447.2747,1675,3087,433,1000
1784847447.2770,1695,3092,433,1000
1784847447.2793,1693,3079,433,1000
1784847447.2813,1705,3071,432,1000
1784847447.2833,1705,3065,432,1000
1784847447.2854,1714,3058,432,1000
1784847447.2869,1681,3063,432,1000
1784847447.2885,1699,3086,432,1000
1784847447.2900,1685,3069,431,1000
1784847447.2916,1692,3083,431,1000
1784847447.2938,1703,3070,431,1000
1784847447.2960,1706,3056,431,1000
1784847447.2982,1695,3054,430,1000
1784847447.3007,1694,3058,430,1000
1784847447.3032,1716,3043,430,1000
1784847447.3057,1728,3039,430,1000
1784847447.3075,1739,3046,430,1000
1784847447.3093,1719,3152,430,1000
1784847447.3111,1648,3143,430,1000
1784847447.3132,1647,3137,429,1000
1784847447.3152,1652,3129,428,1000
1784847447.3173,1676,3129,428,1000
1784847447.3189,1707,3120,428,1000
1784847447.3205,1710,3117,428,1000
1784847447.3221,1706,3101,428,1000
1784847447.3238,1715,3104,428,1000
1784847447.3260,1728,3112,428,1000
1784847447.3282,1721,3157,428,1000
1784847447.3304,1645,3152,427,1000
1784847447.3325,1648,3141,426,1000
1784847447.3346,1662,3147,426,1000
1784847447.3367,1686,3137,426,1000
1784847447.3437,1699,3131,425,1000
1784847447.3507,1706,3135,425,1000
1784847447.3578,1712,3128,425,1000
1784847447.3581,1732,3113,425,1000
1784847447.3584,1726,3133,425,1000
1784847447.3587,1684,3156,425,1000
1784847447.3591,1634,3157,424,1000
1784847447.3594,1654,3142,424,1000
1784847447.3597,1675,3143,423,1000
1784847447.3601,1677,3138,423,1000
1784847447.3607,1687,3123,423,1000
1784847447.3614,1702,3129,423,1000
1784847447.3620,1719,3124,423,1000
1784847447.3642,1720,3117,423,1000
1784847447.3663,1723,3119,423,1000
1784847447.3684,1708,3150,423,1000
1784847447.3705,1666,3155,422,1000
1784847447.3726,1665,3154,422,1000
1784847447.3747,1663,3139,421,1000
1784847447.3772,1678,3125,421,1000
1784847447.3798,1688,3127,421,1000
1784847447.3823,1705,3123,421,1000
1784847447.3836,1704,3119,420,1000
1784847447.3849,1713,3114,420,1000
1784847447.3862,1727,3085,421,1000
1784847447.3876,1744,3103,421,1000
1784847447.3898,2438,3148,428,1000
1784847447.3920,1640,3123,427,1000
1784847447.3942,1666,3114,427,1000
1784847447.3963,1678,3112,426,1000
1784847447.3983,1684,3102,426,1000
1784847447.4004,1696,3091,426,1000
1784847447.4025,1720,3099,426,1000
1784847447.4046,1728,3090,426,1000
1784847447.4067,1723,3083,426,1000
1784847447.4089,3001,3086,439,1000
1784847447.4110,1597,3076,437,1000
1784847447.4132,1648,3069,437,1000
1784847447.4148,1657,3058,436,1000
1784847447.4164,1668,3058,435,1000
1784847447.4180,1687,3054,435,1000
1784847447.4196,1720,3050,435,1000
1784847447.4218,1701,3055,434,1000
1784847447.4240,1684,3039,434,1000
1784847447.4263,1710,3044,434,1000
1784847447.4284,1710,3059,434,1000
1784847447.4306,1663,3057,433,1000
1784847447.4327,1666,3050,432,1000
1784847447.4347,1679,3046,432,1000
1784847447.4367,1694,3034,432,1000
1784847447.4387,1657,3061,431,1000
1784847447.4409,1680,3034,430,1000
1784847447.4431,1749,3037,431,1000
1784847447.4453,1757,3029,431,1000
1784847447.4498,1764,3032,431,1000
1784847447.4542,1721,3095,431,1000
1784847447.4587,1649,3098,431,1000
1784847447.4632,1656,3092,430,1000
1784847447.4633,1665,3093,429,1000
1784847447.4634,1675,3066,429,1000
1784847447.4635,1685,3067,428,1000
1784847447.4636,1708,3059,428,1000
1784847447.4638,1715,3059,428,1000
1784847447.4639,1720,3053,428,1000
1784847447.4661,1719,3049,428,1000
1784847447.4683,2841,3114,439,1000
1784847447.4705,1602,3134,438,1000
1784847447.4726,1674,3122,437,1000
1784847447.4748,1672,3146,437,1000
1784847447.4769,1685,3114,436,1000
1784847447.4787,1694,3111,436,1000
1784847447.4805,1701,3101,435,1000
1784847447.4822,1704,3091,435,1000
1784847447.4840,1714,3098,435,1000
1784847447.4859,1728,3101,435,1000
1784847447.4879,1702,3167,435,1000
1784847447.4898,1634,3166,434,1000
1784847447.4919,1647,3152,433,1000
1784847447.4940,1663,3161,432,1000
1784847447.4961,1678,3140,432,1000
1784847447.4982,1684,3143,431,1000
1784847447.5004,1695,3129,431,1000
1784847447.5025,1711,3123,431,1000
1784847447.5047,1723,3123,431,1000
1784847447.5069,1718,3131,431,1000
1784847447.5090,1689,3146,430,1000
1784847447.5106,1657,3142,429,1000
1784847447.5121,1667,3137,429,1000
1784847447.5137,1679,3150,428,1000
1784847447.5153,1692,3122,428,1000
1784847447.5175,1690,3089,428,1000
1784847447.5197,1675,3114,427,1000
1784847447.5220,1699,3117,427,1000
1784847447.5240,1687,3100,426,1000
1784847447.5261,1701,3122,426,1000
1784847447.5282,1748,3167,426,1000
1784847447.5303,1679,3166,426,1000
1784847447.5324,1675,3165,426,1000
1784847447.5345,1680,3153,425,1000
1784847447.5366,1703,3150,425,1000
1784847447.5388,1737,3142,425,1000
1784847447.5409,1723,3141,425,1000
1784847447.5446,1727,3132,425,1000
1784847447.5483,1732,3120,425,1000
1784847447.5520,1731,3131,425,1000
1784847447.5557,1695,3185,425,1000
1784847447.5559,1630,3178,424,1000
1784847447.5561,1642,3178,423,1000
1784847447.5563,1666,3171,423,1000
1784847447.5576,1669,3162,422,1000
1784847447.5588,1680,3159,422,1000
1784847447.5601,1698,3152,421,1000
1784847447.5622,1713,3152,421,1000
1784847447.5644,1721,3149,421,1000
1784847447.5665,1721,3119,421,1000
1784847447.5686,1699,3157,421,1000
1784847447.5708,1652,3179,420,1000
1784847447.5729,1660,3179,420,1000
1784847447.5745,1673,3177,419,1000
1784847447.5761,1690,3170,419,1000
1784847447.5777,1699,3164,419,1000
1784847447.5792,1716,3180,419,1000
1784847447.5817,1697,3157,419,1000
1784847447.5843,1706,3147,418,1000
1784847447.5868,1730,3144,419,1000
1784847447.5886,1711,3188,418,1000
1784847447.5904,1646,3186,418,1000
1784847447.5922,1654,3167,417,1000
1784847447.5943,1675,3171,417,1000
1784847447.5964,1682,3167,416,1000
1784847447.5985,1690,3153,416,1000
1784847447.6007,1694,3150,416,1000
1784847447.6029,1712,3158,416,1000
1784847447.6051,1728,3146,416,1000
1784847447.6066,1734,3141,416,1000
1784847447.6082,1691,3168,416,1000
1784847447.6097,1646,3162,415,1000
1784847447.6112,1663,3163,414,1000
1784847447.6135,1675,3151,414,1000
1784847447.6157,1681,3143,414,1000
1784847447.6179,1695,3139,413,1000
1784847447.6237,1712,3139,413,1000
1784847447.6294,1716,3135,413,1000
1784847447.6351,1724,3133,414,1000
1784847447.6353,1729,3127,414,1000
1784847447.6355,1710,3169,414,1000
1784847447.6357,1634,3152,413,1000
1784847447.6361,1656,3154,412,1000
1784847447.6364,1645,3146,411,1000
1784847447.6368,1667,3141,411,1000
1784847447.6384,1710,3133,411,1000
1784847447.6401,1733,3127,411,1000
1784847447.6417,1750,3126,412,1000
1784847447.6433,1741,3121,412,1000
1784847447.6455,1729,3127,412,1000
1784847447.6478,1688,3153,412,1000
1784847447.6500,1630,3149,411,1000
1784847447.6520,1651,3147,410,1000
1784847447.6541,1673,3136,410,1000
1784847447.6562,1677,3141,409,1000
1784847447.6583,1693,3127,409,1000
1784847447.6604,1708,3121,409,1000
1784847447.6625,1719,3103,409,1000
1784847447.6647,1737,3109,409,1000
1784847447.6668,1695,3119,409,1000
1784847447.6690,1656,3101,409,1000
1784847447.6706,1700,3097,409,1000
1784847447.6721,1657,3102,408,1000
1784847447.6737,1680,3087,408,1000
1784847447.6752,1694,3083,408,1000
1784847447.6775,1696,3069,407,1000
1784847447.6798,1708,3072,407,1000
1784847447.6820,1712,3034,407,1000
1784847447.6842,1715,3057,407,1000
1784847447.6864,1730,3062,408,1000
1784847447.6886,1710,3136,408,1000
1784847447.6906,1648,3124,407,1000
1784847447.6925,1659,3103,406,1000
1784847447.6945,1679,3118,406,1000
1784847447.7003,1697,3116,406,1000
1784847447.7061,1696,3120,406,1000
1784847447.7119,1700,3108,406,1000
1784847447.7121,1706,3052,406,1000
1784847447.7122,1726,3090,406,1000
1784847447.7124,1744,3085,406,1000
1784847447.7126,1778,3133,407,1000
1784847447.7130,1661,3126,406,1000
1784847447.7135,1678,3122,406,1000
1784847447.7139,1691,3119,406,1000
1784847447.7160,1684,3044,405,1000
1784847447.7181,1691,3109,405,1000
1784847447.7202,1699,3102,405,1000
1784847447.7224,1715,3107,405,1000
1784847447.7246,1668,3091,405,1000
1784847447.7268,1689,3103,404,1000
1784847447.7288,1739,3113,405,1000
1784847447.7309,1688,3107,404,1000
1784847447.7329,1663,3102,404,1000
1784847447.7345,1663,3117,404,1000
1784847447.7361,1684,3057,403,1000
1784847447.7377,1708,3115,403,1000
1784847447.7392,1699,3089,403,1000
1784847447.7415,1709,3107,403,1000
1784847447.7437,1727,3081,403,1000
1784847447.7459,1727,3078,403,1000
1784847447.7480,1715,3105,404,1000
1784847447.7500,1641,3101,403,1000
1784847447.7521,1663,3108,402,1000
1784847447.7542,1675,3066,402,1000
1784847447.7564,1683,3087,402,1000
1784847447.7585,1686,3087,401,1000
1784847447.7607,1726,3075,402,1000
1784847447.7629,1722,3081,402,1000
1784847447.7651,1733,3072,402,1000
1784847447.7667,1733,3076,402,1000
1784847447.7683,1707,3128,402,1000
1784847447.7699,1646,3122,402,1000
1784847447.7715,1655,3120,401,1000
1784847447.7737,1664,3118,401,1000
1784847447.7759,1666,3107,400,1000
1784847447.7781,1685,3100,400,1000
1784847447.7802,1702,3096,400,1000
1784847447.7822,1708,3095,400,1000
1784847447.7843,1712,3072,400,1000
1784847447.7865,1724,3062,400,1000
1784847447.7887,1730,3190,400,1000
1784847447.7909,1661,3128,400,1000
1784847447.7966,1649,3133,399,1000
1784847447.8024,1658,3132,399,1000
1784847447.8081,1684,3123,398,1000
1784847447.8083,1703,3120,398,1000
1784847447.8085,1715,3116,398,1000
1784847447.8086,1725,3114,399,1000
1784847447.8088,1732,3110,399,1000
1784847447.8092,1719,3101,399,1000
1784847447.8096,1708,3137,399,1000
1784847447.8101,1645,3135,398,1000
1784847447.8121,1667,3128,398,1000
1784847447.8141,1673,3118,398,1000
1784847447.8161,1676,3119,397,1000
1784847447.8183,1690,3102,397,1000
1784847447.8204,1714,3089,397,1000
1784847447.8226,1718,3100,397,1000
1784847447.8247,1713,3087,397,1000
1784847447.8268,1726,3127,398,1000
1784847447.8289,1703,3118,397,1000
1784847447.8305,1658,3098,397,1000
1784847447.8321,1660,3111,397,1000
1784847447.8338,1679,3099,396,1000
1784847447.8354,1681,3087,396,1000
1784847447.8376,1708,3092,396,1000
1784847447.8397,1704,3086,396,1000
1784847447.8419,1724,3088,396,1000
1784847447.8457,1723,3067,396,1000
1784847447.8495,1732,3079,397,1000
1784847447.8533,1694,3153,396,1000
1784847447.8545,1648,3146,396,1000
1784847447.8557,1667,3155,395,1000
1784847447.8569,1676,3145,395,1000
1784847447.8582,1677,3138,395,1000
1784847447.8595,1673,3132,394,1000
1784847447.8608,1690,3109,394,1000
1784847447.8624,1724,3136,395,1000
1784847447.8640,1731,3120,395,1000
1784847447.8656,1713,3113,395,1000
1784847447.8673,3108,3129,409,1000
1784847447.8703,1574,3115,407,1000
1784847447.8733,1687,3114,407,1000
1784847447.8763,1699,3110,407,1000
1784847447.8793,1711,3088,407,1000
1784847447.8823,1710,3095,407,1000
1784847447.8853,1708,3090,407,1000
1784847447.8857,1705,3087,406,1000
1784847447.8862,1711,3059,406,1000
1784847447.8867,1731,3070,406,1000
1784847447.8889,1949,3165,409,1000
1784847447.8912,1651,3166,408,1000
1784847447.8935,1653,3157,407,1000
1784847447.8949,1672,3146,407,1000
1784847447.8964,1675,3148,406,1000
1784847447.8978,1679,3132,406,1000
1784847447.8992,1686,3130,406,1000
1784847447.9015,1703,3126,406,1000
1784847447.9037,1705,3098,405,1000
1784847447.9059,1717,3121,405,1000
1784847447.9080,1737,3169,406,1000
1784847447.9101,1660,3163,405,1000
1784847447.9122,1646,3169,404,1000
1784847447.9143,1668,3148,404,1000
1784847447.9164,1680,3140,403,1000
1784847447.9185,1683,3135,403,1000
1784847447.9220,1701,3132,403,1000
1784847447.9256,1714,3178,403,1000
1784847447.9291,1724,3120,403,1000
1784847447.9297,1733,3121,403,1000
1784847447.9303,1717,3176,403,1000
1784847447.9309,1656,3167,402,1000
1784847447.9314,1653,3157,402,1000
1784847447.9336,1663,3160,401,1000
1784847447.9358,1678,3139,401,1000
1784847447.9380,1698,3135,401,1000
1784847447.9402,1696,3137,401,1000
1784847447.9424,1715,3127,401,1000
1784847447.9445,1734,3125,401,1000
1784847447.9466,1729,3106,401,1000
1784847447.9486,1727,3109,401,1000
1784847447.9506,1729,3108,401,1000
1784847447.9533,2520,3162,409,1000
1784847447.9560,1649,3150,408,1000
1784847447.9586,1665,3157,408,1000
1784847447.9613,1671,3148,407,1000
1784847447.9639,1694,3145,407,1000
1784847447.9666,1708,3140,407,1000
1784847447.9692,1709,3124,407,1000
1784847447.9696,1700,3132,406,1000
1784847447.9699,1686,3149,406,1000
1784847447.9702,1628,3142,405,1000
1784847447.9722,1642,3138,404,1000
1784847447.9742,1661,3133,404,1000
1784847447.9762,1668,3133,403,1000
1784847447.9783,1687,3113,403,1000
1784847447.9805,1700,3125,403,1000
1784847447.9826,1704,3112,403,1000
1784847447.9847,1715,3110,403,1000
1784847447.9869,1727,3114,403,1000
1784847447.9890,1699,3162,402,1000
1784847447.9907,1662,3160,402,1000
1784847447.9924,1660,3154,401,1000
1784847447.9942,1671,3148,401,1000
1784847447.9959,1691,3150,400,1000
1784847447.9980,1696,3129,400,1000
1784847448.0000,1698,3146,400,1000
1784847448.0021,1721,3129,400,1000
1784847448.0042,1734,3148,400,1000
1784847448.0063,1731,3131,400,1000
1784847448.0083,1694,3158,400,1000
1784847448.0104,1644,3186,399,1000
1784847448.0125,1671,3148,399,1000
1784847448.0145,1675,3138,399,1000
1784847448.0167,1676,3131,398,1000
1784847448.0189,1684,3132,398,1000
1784847448.0210,1709,3127,398,1000
1784847448.0227,1717,3121,398,1000
1784847448.0243,1718,3113,398,1000
1784847448.0260,1734,3097,398,1000
1784847448.0276,2947,3183,410,1000
1784847448.0351,1642,3168,409,1000
1784847448.0426,1650,3159,409,1000
1784847448.0501,1670,3144,408,1000
1784847448.0502,1669,3149,407,1000
1784847448.0503,1682,3145,407,1000
1784847448.0504,1691,3142,407,1000
1784847448.0505,1703,3132,406,1000
1784847448.0506,1717,3130,406,1000
1784847448.0508,1709,3133,406,1000
1784847448.0515,1675,3145,406,1000
1784847448.0522,1648,3152,405,1000
1784847448.0530,1672,3133,404,1000
1784847448.0545,1696,3133,404,1000
1784847448.0561,1703,3135,404,1000
1784847448.0577,1695,3116,404,1000
1784847448.0593,1705,3126,403,1000
1784847448.0615,1715,3108,403,1000
1784847448.0638,1714,3103,403,1000
1784847448.0660,1730,3101,403,1000
1784847448.0680,1762,3158,404,1000
1784847448.0701,1646,3155,403,1000
1784847448.0721,1669,3152,402,1000
1784847448.0742,1681,3142,402,1000
1784847448.0764,1688,3139,402,1000
1784847448.0785,1720,3132,402,1000
1784847448.0807,1705,3128,401,1000
1784847448.0829,1709,3120,401,1000
1784847448.0851,1711,3122,401,1000
1784847448.0867,1729,3131,401,1000
1784847448.0882,1690,3160,401,1000
1784847448.0897,1644,3155,400,1000
1784847448.0913,1629,3147,399,1000
1784847448.0936,1626,3143,398,1000
1784847448.0960,1685,3136,398,1000
1784847448.0983,1728,3134,398,1000
1784847448.1003,1745,3125,398,1000
1784847448.1023,1728,3118,398,1000
1784847448.1042,1728,3120,399,1000
1784847448.1064,1723,3113,399,1000
1784847448.1086,3157,3169,413,1000
1784847448.1108,1603,3160,412,1000
1784847448.1128,1651,3155,411,1000
1784847448.1149,1666,3147,410,1000
1784847448.1170,1674,3142,410,1000
1784847448.1186,1680,3139,409,1000
1784847448.1201,1700,3126,409,1000
1784847448.1217,1710,3126,408,1000
1784847448.1233,1713,3125,408,1000
1784847448.1299,1717,3129,408,1000
1784847448.1364,1695,3163,408,1000
1784847448.1430,1647,3154,407,1000
1784847448.1432,1643,3148,406,1000
1784847448.1433,1670,3143,406,1000
1784847448.1435,1685,3148,405,1000
1784847448.1436,1699,3134,405,1000
1784847448.1438,1705,3125,405,1000
1784847448.1439,1712,3119,404,1000
1784847448.1456,1726,3115,404,1000
1784847448.1473,1735,3123,404,1000
1784847448.1490,1695,3134,404,1000
1784847448.1505,1650,3121,403,1000
1784847448.1521,1666,3118,403,1000
1784847448.1537,1681,3109,402,1000
1784847448.1553,1675,3107,402,1000
1784847448.1575,1701,3097,402,1000
1784847448.1598,1710,3092,401,1000
1784847448.1620,1703,3090,401,1000
1784847448.1641,1710,3090,401,1000
1784847448.1661,1737,3083,401,1000
1784847448.1682,1720,3147,401,1000
1784847448.1703,1658,3143,400,1000
1784847448.1724,1663,3135,400,1000
1784847448.1745,1678,3130,399,1000
1784847448.1766,1684,3128,399,1000
1784847448.1787,1693,3111,399,1000
1784847448.1808,1701,3123,398,1000
1784847448.1824,1709,3110,398,1000
1784847448.1840,1714,3119,398,1000
1784847448.1856,1727,3104,398,1000
1784847448.1873,1738,3114,398,1000
1784847448.1895,3122,3165,412,1000
1784847448.1917,1608,3150,411,1000
1784847448.1939,1661,3155,410,1000
1784847448.1962,1677,3149,410,1000
1784847448.1986,1684,3143,409,1000
1784847448.2010,1689,3130,409,1000
1784847448.2029,1694,3126,408,1000
1784847448.2048,1712,3124,408,1000
1784847448.2067,1744,3101,408,1000
1784847448.2087,1724,3112,408,1000
1784847448.2107,1732,3106,408,1000
1784847448.2127,1739,3100,408,1000
1784847448.2148,1742,3095,408,1000
1784847448.2168,2339,3177,414,1000
1784847448.2188,1642,3168,413,1000
1784847448.2208,1660,3158,413,1000
1784847448.2225,1675,3156,412,1000
1784847448.2242,1682,3150,411,1000
1784847448.2260,1696,3144,411,1000
1784847448.2282,3126,3139,425,1000
1784847448.2303,1585,3129,423,1000
1784847448.2325,1618,3134,422,1000
1784847448.2345,1647,3123,421,1000
1784847448.2365,1673,3118,420,1000
1784847448.2385,1688,3112,419,1000
1784847448.2407,1694,3114,419,1000
1784847448.2429,1692,3106,418,1000
1784847448.2451,1705,3099,418,1000
1784847448.2467,1726,3103,418,1000
1784847448.2482,1703,3142,417,1000
1784847448.2498,1641,3132,416,1000
1784847448.2514,1659,3127,415,1000
1784847448.2536,1676,3121,415,1000
1784847448.2558,1687,3123,414,1000
1784847448.2580,1682,3113,414,1000
1784847448.2603,1689,3106,413,1000
1784847448.2625,1699,3096,413,1000
1784847448.2648,1697,3096,412,1000
1784847448.2668,1716,3096,412,1000
1784847448.2689,1725,3160,412,1000
1784847448.2709,1661,3156,411,1000
1784847448.2730,1683,3143,410,1000
1784847448.2751,1680,3141,410,1000
1784847448.2772,1696,3136,409,1000
1784847448.2788,1706,3130,409,1000
1784847448.2804,1704,3130,409,1000
1784847448.2820,1698,3123,408,1000
1784847448.2837,1713,3124,408,1000
1784847448.2890,1713,3128,408,1000
1784847448.2943,1690,3147,407,1000
1784847448.2996,1634,3147,406,1000
1784847448.2999,1648,3129,406,1000
1784847448.3001,1663,3127,405,1000
1784847448.3004,1683,3121,404,1000
1784847448.3011,1691,3114,404,1000
1784847448.3018,1697,3110,404,1000
1784847448.3025,1717,3134,403,1000
1784847448.3047,1739,3108,403,1000
1784847448.3068,1741,3110,404,1000
1784847448.3090,1702,3164,403,1000
1784847448.3106,1648,3155,402,1000
1784847448.3122,1664,3148,402,1000
1784847448.3137,1667,3149,401,1000
1784847448.3153,1682,3134,401,1000
1784847448.3176,1701,3132,400,1000
1784847448.3198,1719,3127,400,1000
1784847448.3220,1727,3122,400,1000
1784847448.3241,1719,3118,400,1000
1784847448.3262,1725,3126,400,1000
1784847448.3283,1702,3157,400,1000
1784847448.3304,1648,3147,399,1000
1784847448.3325,1661,3144,398,1000
1784847448.3346,1668,3135,398,1000
1784847448.3369,1680,3137,397,1000
1784847448.3392,1694,3129,397,1000
1784847448.3415,1697,3122,396,1000
1784847448.3429,1710,3126,396,1000
1784847448.3444,1725,3112,396,1000
1784847448.3459,1731,3113,396,1000
1784847448.3474,1756,3160,397,1000
1784847448.3496,1643,3153,396,1000
1784847448.3518,1651,3155,395,1000
1784847448.3540,1669,3139,394,1000
1784847448.3562,1682,3135,394,1000
1784847448.3583,1685,3137,393,1000
1784847448.3605,1702,3126,393,1000
1784847448.3633,1723,3123,393,1000
1784847448.3661,1741,3120,393,1000
1784847448.3688,1729,3150,393,1000
1784847448.3722,1706,3155,393,1000
1784847448.3756,1654,3153,393,1000
1784847448.3790,1663,3146,392,1000
1784847448.3792,1657,3146,391,1000
1784847448.3794,1679,3138,391,1000
1784847448.3795,1700,3130,391,1000
1784847448.3797,1705,3133,390,1000
1784847448.3818,1718,3131,390,1000
1784847448.3839,1717,3118,390,1000
1784847448.3860,1719,3127,390,1000
1784847448.3881,1673,3147,390,1000
1784847448.3902,1644,3139,389,1000
1784847448.3923,1648,3136,388,1000
1784847448.3944,1684,3141,388,1000
1784847448.3964,1702,3124,388,1000
1784847448.3985,1702,3122,387,1000
1784847448.4009,1718,3110,387,1000
1784847448.4032,1731,3105,388,1000
1784847448.4055,1734,3102,388,1000
1784847448.4070,1727,3108,388,1000
1784847448.4084,1681,3152,387,1000
1784847448.4099,1630,3146,386,1000
1784847448.4114,1650,3140,386,1000
1784847448.4137,1665,3140,385,1000
1784847448.4160,1680,3132,385,1000
1784847448.4182,1691,3124,385,1000
1784847448.4204,1704,3120,384,1000
1784847448.4226,1712,3116,384,1000
1784847448.4248,1714,3112,384,1000
1784847448.4267,1725,3115,384,1000
1784847448.4286,1704,3175,384,1000
1784847448.4305,1650,3166,384,1000
1784847448.4331,1658,3149,383,1000
1784847448.4357,1665,3143,382,1000
1784847448.4382,1682,3132,382,1000
1784847448.4400,1693,3127,382,1000
1784847448.4417,1701,3132,382,1000
1784847448.4435,1711,3126,382,1000
1784847448.4453,1712,3115,382,1000
1784847448.4474,1712,3120,382,1000
1784847448.4495,1699,3178,381,1000
1784847448.4516,1658,3167,381,1000
1784847448.4537,1678,3156,380,1000
1784847448.4559,1690,3154,380,1000
1784847448.4580,1693,3144,380,1000
1784847448.4595,1695,3133,380,1000
1784847448.4610,1696,3137,380,1000
1784847448.4625,1708,3133,379,1000
1784847448.4647,1708,3121,379,1000
1784847448.4669,1720,3135,379,1000
1784847448.4691,1693,3112,379,1000
1784847448.4707,1703,3113,379,1000
1784847448.4722,1599,3111,378,1000
1784847448.4738,1614,3101,377,1000
1784847448.4753,1643,3093,376,1000
1784847448.4775,1661,3094,376,1000
1784847448.4797,1683,3090,375,1000
1784847448.4819,1682,3082,375,1000
1784847448.4840,1697,3071,375,1000
1784847448.4861,1931,3085,377,1000
1784847448.4882,1647,3135,377,1000
1784847448.4903,1615,3123,376,1000
1784847448.4925,1629,3122,375,1000
1784847448.4946,1649,3112,374,1000
1784847448.4974,1668,3114,374,1000
1784847448.5003,1677,3106,373,1000
1784847448.5031,1680,3106,373,1000
1784847448.5043,1688,3094,373,1000
1784847448.5055,1711,3086,373,1000
1784847448.5067,1716,3094,373,1000
1784847448.5079,1679,3116,373,1000
1784847448.5099,1644,3109,372,1000
1784847448.5120,1668,3102,372,1000
1784847448.5140,1657,3094,371,1000
1784847448.5161,1675,3090,371,1000
1784847448.5181,1695,3088,371,1000
1784847448.5202,1712,3110,371,1000
1784847448.5267,1721,3082,371,1000
1784847448.5333,1726,3060,371,1000
1784847448.5398,1737,3077,371,1000
1784847448.5400,1719,3158,371,1000
1784847448.5401,1681,3154,371,1000
1784847448.5403,1667,3147,371,1000
1784847448.5405,1673,3140,370,1000
1784847448.5406,1690,3135,370,1000
1784847448.5408,1703,3131,370,1000
1784847448.5410,1709,3129,370,1000
1784847448.5426,1717,3123,370,1000
1784847448.5443,1725,3114,370,1000
1784847448.5459,1735,3059,371,1000
1784847448.5481,2403,3180,377,1000
1784847448.5503,1644,3186,377,1000
1784847448.5524,1662,3165,376,1000
1784847448.5545,1681,3160,376,1000
1784847448.5565,1692,3154,376,1000
1784847448.5585,1686,3148,375,1000
1784847448.5607,1701,3182,375,1000
1784847448.5629,1716,3132,375,1000
1784847448.5651,1726,3141,375,1000
1784847448.5666,1726,3142,375,1000
1784847448.5682,1689,3162,375,1000
1784847448.5697,1630,3159,374,1000
1784847448.5713,1649,3129,374,1000
1784847448.5739,1655,3146,373,1000
1784847448.5766,1666,3133,373,1000
1784847448.5792,1695,3131,373,1000
1784847448.5813,1696,3128,372,1000
1784847448.5835,1692,3121,372,1000
1784847448.5856,1719,3118,372,1000
1784847448.5877,1734,3127,372,1000
1784847448.5899,1729,3190,373,1000
1784847448.5921,1657,3182,372,1000
1784847448.5937,1662,3172,372,1000
1784847448.5954,1678,3173,371,1000
1784847448.5971,1708,3166,371,1000
1784847448.5988,1695,3159,371,1000
1784847448.6005,1697,3114,371,1000
1784847448.6022,1710,3150,371,1000
1784847448.6039,1724,3136,371,1000
1784847448.6066,1726,3142,371,1000
1784847448.6093,1706,3166,371,1000
1784847448.6119,1648,3150,370,1000
1784847448.6146,1657,3153,370,1000
1784847448.6173,1674,3149,370,1000
1784847448.6200,1676,3141,369,1000
1784847448.6208,1681,3132,369,1000
1784847448.6217,1723,3136,369,1000
1784847448.6225,1715,3128,369,1000
1784847448.6247,1712,3121,369,1000
1784847448.6268,1716,3125,369,1000
1784847448.6290,1699,3137,369,1000
1784847448.6306,1648,3138,368,1000
1784847448.6321,1654,3129,368,1000
1784847448.6337,1659,3120,367,1000
1784847448.6352,1669,3116,367,1000
1784847448.6375,1691,3104,367,1000
1784847448.6398,1711,3098,367,1000
1784847448.6420,1710,3099,367,1000
1784847448.6441,1727,3092,367,1000
1784847448.6462,1739,3088,367,1000
1784847448.6482,1711,3146,367,1000
1784847448.6503,1633,3133,367,1000
1784847448.6524,1657,3132,366,1000
1784847448.6545,1678,3123,366,1000
1784847448.6567,1686,3122,366,1000
1784847448.6589,1698,3115,365,1000
1784847448.6611,1712,3114,365,1000
1784847448.6626,1718,3108,366,1000
1784847448.6642,1722,3097,366,1000
1784847448.6658,1718,3105,366,1000
1784847448.6674,1690,3129,366,1000
1784847448.6698,1648,3116,365,1000
1784847448.6722,1665,3120,365,1000
1784847448.6746,1673,3117,364,1000
1784847448.6766,1680,3107,364,1000
1784847448.6786,1697,3097,364,1000
1784847448.6806,1703,3099,364,1000
1784847448.6827,1718,3092,364,1000
1784847448.6848,1715,3091,364,1000
1784847448.6869,1734,3039,364,1000
1784847448.6890,1711,3144,364,1000
1784847448.6910,1648,3131,364,1000
1784847448.6931,1657,3126,363,1000
1784847448.6956,1666,3119,363,1000
1784847448.6981,1682,3135,363,1000
1784847448.7006,1687,3112,362,1000
1784847448.7031,1693,3110,362,1000
1784847448.7056,1704,3100,362,1000
1784847448.7081,1730,3105,362,1000
1784847448.7106,1738,3095,363,1000
1784847448.7112,1719,3148,363,1000
1784847448.7117,1647,3141,362,1000
1784847448.7122,1669,3129,362,1000
1784847448.7143,1665,3132,361,1000
1784847448.7164,1670,3113,361,1000
1784847448.7186,1692,3119,361,1000
1784847448.7209,1712,3114,361,1000
1784847448.7233,1726,3105,361,1000
1784847448.7256,1725,3102,361,1000
1784847448.7270,1732,3090,362,1000
1784847448.7285,1781,3154,362,1000
1784847448.7299,1656,3145,362,1000
1784847448.7313,1654,3132,361,1000
1784847448.7336,1659,3149,361,1000
1784847448.7358,1677,3125,361,1000
1784847448.7380,1688,3126,360,1000
1784847448.7401,1703,3118,360,1000
1784847448.7423,1705,3114,360,1000
1784847448.7444,1720,3105,361,1000
1784847448.7466,1735,3101,361,1000
1784847448.7489,1713,3159,361,1000
1784847448.7511,1642,3151,360,1000
1784847448.7532,1661,3140,360,1000
1784847448.7553,1677,3142,360,1000
1784847448.7575,1690,3132,359,1000
1784847448.7589,1690,3123,359,1000
1784847448.7604,1707,3123,359,1000
1784847448.7619,1717,3117,359,1000
1784847448.7634,1727,3107,360,1000
1784847448.7658,1726,3128,360,1000
1784847448.7682,1701,3162,360,1000
1784847448.7706,1652,3144,359,1000
1784847448.7726,1644,3144,359,1000
1784847448.7747,1656,3133,358,1000
1784847448.7767,1686,3132,358,1000
1784847448.7791,1706,3127,358,1000
1784847448.7815,1715,3121,358,1000
1784847448.7839,1716,3115,358,1000
1784847448.7863,1717,3117,358,1000
1784847448.7888,1730,3123,359,1000
1784847448.7912,1727,3174,359,1000
1784847448.7922,1647,3161,358,1000
1784847448.7932,1644,3159,358,1000
1784847448.7941,1666,3152,357,1000
1784847448.7951,1681,3144,357,1000
1784847448.7974,1680,3149,357,1000
1784847448.7997,1688,3139,357,1000
1784847448.8020,1705,3127,357,1000
1784847448.8041,1714,3124,357,1000
1784847448.8061,1721,3125,357,1000
1784847448.8082,1699,3153,357,1000
1784847448.8103,1646,3149,356,1000
1784847448.8124,1663,3142,356,1000
1784847448.8145,1679,3137,356,1000
1784847448.8166,1683,3130,355,1000
1784847448.8188,1696,3118,355,1000
1784847448.8209,1710,3119,355,1000
1784847448.8226,1717,3126,355,1000
1784847448.8243,1718,3115,356,1000
1784847448.8259,1727,3098,356,1000
1784847448.8276,1744,3123,356,1000
1784847448.8298,1613,3161,355,1000
1784847448.8320,1649,3145,355,1000
1784847448.8343,1659,3149,354,1000
1784847448.8363,1678,3149,354,1000
1784847448.8382,1694,3140,354,1000
1784847448.8402,1697,3134,354,1000
1784847448.8425,1705,3127,354,1000
1784847448.8448,1726,3124,354,1000
1784847448.8470,1728,3119,354,1000
1784847448.8492,1733,3138,355,1000
1784847448.8515,1621,3154,354,1000
1784847448.8537,1645,3151,353,1000
1784847448.8558,1662,3137,353,1000
1784847448.8580,1676,3142,353,1000
1784847448.8602,1670,3132,352,1000
1784847448.8624,1691,3123,352,1000
1784847448.8645,1693,3135,352,1000
1784847448.8667,1709,3111,352,1000
1784847448.8689,1712,3126,352,1000
1784847448.8700,1689,3140,352,1000
1784847448.8711,1643,3135,352,1000
1784847448.8722,1643,3118,351,1000
1784847448.8743,1649,3126,350,1000
1784847448.8764,1680,3129,350,1000
1784847448.8785,1711,3114,350,1000
1784847448.8807,1727,3109,351,1000
1784847448.8829,1723,3099,351,1000
1784847448.8851,1716,3096,351,1000
1784847448.8867,1724,3105,351,1000
1784847448.8882,1720,3159,351,1000
1784847448.8897,1639,3153,351,1000
1784847448.8913,1645,3145,350,1000
1784847448.8935,1665,3136,350,1000
1784847448.8958,1681,3135,350,1000
1784847448.8980,1690,3138,350,1000
1784847448.9002,1696,3128,350,1000
1784847448.9024,1710,3121,350,1000
1784847448.9045,1726,3116,350,1000
1784847448.9066,1732,3112,350,1000
1784847448.9086,3103,3169,364,1000
1784847448.9106,1509,3157,362,1000
1784847448.9128,1585,3142,361,1000
1784847448.9150,1596,3139,360,1000
1784847448.9172,1614,3144,359,1000
1784847448.9187,1623,3122,358,1000
1784847448.9202,1665,3127,357,1000
1784847448.9218,1678,3123,357,1000
1784847448.9233,1680,3118,357,1000
1784847448.9257,1694,3127,357,1000
1784847448.9282,1670,3135,356,1000
1784847448.9307,1622,3125,355,1000
1784847448.9325,1636,3156,355,1000
1784847448.9344,1646,3117,354,1000
1784847448.9363,1660,3113,354,1000
1784847448.9402,1690,3112,353,1000
1784847448.9441,1708,3097,354,1000
1784847448.9481,1711,3096,354,1000
1784847448.9483,1723,3089,354,1000
1784847448.9485,1742,3088,354,1000
1784847448.9488,1716,3176,354,1000
1784847448.9504,1625,3165,353,1000
1784847448.9521,1636,3152,353,1000
1784847448.9538,1671,3158,352,1000
1784847448.9555,1701,3147,352,1000
1784847448.9576,1712,3137,352,1000
1784847448.9598,1723,3138,353,1000
1784847448.9619,1724,3128,353,1000
1784847448.9640,1733,3127,353,1000
1784847448.9661,1731,3130,353,1000
1784847448.9681,1697,3176,353,1000
1784847448.9703,1651,3153,353,1000
1784847448.9724,1667,3154,352,1000
1784847448.9745,1676,3152,352,1000
1784847448.9767,1679,3141,352,1000
1784847448.9788,1698,3142,352,1000
1784847448.9810,1715,3135,352,1000
1784847448.9827,1715,3130,352,1000
1784847448.9844,1725,3122,352,1000
1784847448.9860,1731,3132,352,1000
1784847448.9877,1700,3167,352,1000
1784847448.9899,1641,3166,351,1000
1784847448.9920,1648,3163,351,1000
1784847448.9942,1664,3151,351,1000
1784847448.9963,1681,3142,350,1000
1784847448.9983,1690,3143,350,1000
1784847449.0004,1697,3147,350,1000
1784847449.0026,1711,3136,350,1000
1784847449.0049,1728,3131,350,1000
1784847449.0071,1740,3136,351,1000
1784847449.0094,1694,3174,351,1000
1784847449.0117,1644,3161,350,1000
1784847449.0140,1663,3161,350,1000
1784847449.0162,1674,3158,349,1000
1784847449.0185,1680,3149,349,1000
1784847449.0208,1687,3143,349,1000
1784847449.0231,1711,3139,349,1000
1784847449.0240,1726,3136,349,1000
1784847449.0249,1721,3126,349,1000
1784847449.0259,1727,3135,350,1000
1784847449.0282,1700,3183,349,1000
1784847449.0305,1649,3153,349,1000
1784847449.0328,1651,3162,348,1000
1784847449.0347,1665,3151,348,1000
1784847449.0366,1685,3149,348,1000
1784847449.0384,1698,3144,348,1000
1784847449.0406,1710,3139,348,1000
1784847449.0429,1713,3132,348,1000
1784847449.0451,1720,3127,348,1000
1784847449.0467,1720,3125,348,1000
1784847449.0482,1705,3167,348,1000
1784847449.0497,1645,3165,348,1000
1784847449.0513,1653,3154,347,1000
1784847449.0536,1675,3156,347,1000
1784847449.0560,1682,3148,347,1000
1784847449.0583,1688,3144,347,1000
1784847449.0603,1710,3133,347,1000
1784847449.0623,1727,3128,347,1000
1784847449.0644,1730,3127,347,1000
1784847449.0664,1723,3130,347,1000
1784847449.0684,1677,3153,347,1000
1784847449.0705,1643,3145,346,1000
1784847449.0726,1667,3144,346,1000
1784847449.0748,1654,3129,346,1000
1784847449.0769,1684,3129,345,1000
1784847449.0786,1709,3133,345,1000
1784847449.0803,1705,3123,345,1000
1784847449.0820,1709,3119,346,1000
1784847449.0837,1711,3114,346,1000
1784847449.0860,1721,3121,346,1000
1784847449.0883,1682,3150,346,1000
1784847449.0907,1637,3141,345,1000
1784847449.0964,1651,3133,344,1000
1784847449.1022,1666,3135,344,1000
1784847449.1080,1686,3126,344,1000
1784847449.1081,1700,3125,344,1000
1784847449.1082,1700,3118,344,1000
1784847449.1083,1710,3117,344,1000
1784847449.1084,1728,3106,344,1000
1784847449.1085,1736,3113,345,1000
1784847449.1086,1696,3179,345,1000
1784847449.1103,1648,3150,344,1000
1784847449.1120,1667,3145,344,1000
1784847449.1137,1677,3137,343,1000
1784847449.1153,1684,3128,343,1000
1784847449.1175,1688,3130,343,1000
1784847449.1197,1710,3124,343,1000
1784847449.1219,1719,3114,343,1000
1784847449.1240,1720,3118,343,1000
1784847449.1260,1726,3109,344,1000
1784847449.1281,1731,3106,344,1000
1784847449.1304,2496,3115,352,1000
1784847449.1326,1592,3159,351,1000
1784847449.1349,1657,3154,350,1000
1784847449.1369,1664,3150,350,1000
1784847449.1390,1682,3145,350,1000
1784847449.1410,1685,3141,349,1000
1784847449.1426,1691,3133,349,1000
1784847449.1443,1708,3129,349,1000
1784847449.1459,1724,3139,349,1000
1784847449.1476,1702,3122,349,1000
1784847449.1499,1649,3083,349,1000
1784847449.1523,1666,3118,348,1000
1784847449.1546,1674,3108,348,1000
1784847449.1565,1674,3109,348,1000
1784847449.1584,1673,3093,347,1000
1784847449.1603,1680,3095,347,1000
1784847449.1624,1703,3089,347,1000
1784847449.1645,1713,3078,347,1000
1784847449.1666,1716,3085,347,1000
1784847449.1687,1706,3109,347,1000
1784847449.1709,1651,3101,346,1000
1784847449.1731,1664,3099,346,1000
1784847449.1747,1673,3094,346,1000
1784847449.1763,1681,3088,345,1000
1784847449.1779,1703,3092,345,1000
1784847449.1796,1712,3083,345,1000
1784847449.1819,1714,3108,346,1000
1784847449.1842,1712,3066,346,1000
1784847449.1865,1727,3058,346,1000
1784847449.1888,1707,3099,346,1000
1784847449.1911,1651,3108,345,1000
1784847449.1933,1658,3103,345,1000
1784847449.1956,1675,3097,344,1000
1784847449.1979,1688,3098,344,1000
1784847449.2002,1704,3086,344,1000
1784847449.2018,1704,3086,344,1000
1784847449.2035,1716,3081,344,1000
1784847449.2052,1724,3070,345,1000
1784847449.2067,1722,3077,345,1000
1784847449.2083,1696,3095,345,1000
1784847449.2098,1650,3090,344,1000
1784847449.2113,1672,3091,344,1000
1784847449.2135,1682,3078,343,1000
1784847449.2157,1691,3080,343,1000
1784847449.2179,1699,3072,343,1000
1784847449.2201,1711,3060,343,1000
1784847449.2222,1717,3048,343,1000
1784847449.2243,1711,3055,344,1000
1784847449.2264,1719,3051,344,1000
1784847449.2284,1730,3115,344,1000
1784847449.2305,1651,3100,343,1000
1784847449.2328,1658,3100,343,1000
1784847449.2352,1660,3085,342,1000
1784847449.2376,1680,3089,342,1000
1784847449.2390,1696,3087,342,1000
1784847449.2404,1703,3075,342,1000
1784847449.2419,1712,3068,342,1000
1784847449.2433,1726,3070,342,1000
1784847449.2457,1743,3064,343,1000
1784847449.2480,1727,3142,343,1000
1784847449.2504,1648,3139,342,1000
1784847449.2525,1653,3128,342,1000
1784847449.2545,1678,3126,342,1000
1784847449.2566,1689,3124,341,1000
1784847449.2587,1679,3117,341,1000
1784847449.2608,1692,3120,341,1000
1784847449.2629,1711,3103,341,1000
1784847449.2691,1714,3099,341,1000
1784847449.2753,1717,3093,341,1000
1784847449.2815,2164,3138,346,1000
1784847449.2816,1646,3138,345,1000
1784847449.2817,1662,3130,345,1000
1784847449.2818,1665,3123,344,1000
1784847449.2819,1678,3113,344,1000
1784847449.2820,1694,3115,344,1000
1784847449.2821,1707,3110,344,1000
1784847449.2822,1715,3104,344,1000
1784847449.2842,1726,3101,344,1000
1784847449.2862,1738,3103,345,1000
1784847449.2882,1726,3170,345,1000
1784847449.2903,1641,3169,344,1000
1784847449.2924,1646,3164,343,1000
1784847449.2945,1665,3155,343,1000
1784847449.2967,1683,3145,343,1000
1784847449.2989,1694,3140,343,1000
1784847449.3011,1695,3139,342,1000
1784847449.3027,1707,3137,342,1000
1784847449.3042,1720,3129,343,1000
1784847449.3058,1727,3129,343,1000
1784847449.3073,1706,3182,343,1000
1784847449.3095,1649,3176,342,1000
1784847449.3117,1663,3169,342,1000
1784847449.3140,1675,3160,341,1000
1784847449.3160,1679,3164,341,1000
1784847449.3180,1691,3155,341,1000
1784847449.3201,1712,3144,341,1000
1784847449.3222,1711,3141,341,1000
1784847449.3244,1712,3145,341,1000
1784847449.3265,1728,3129,341,1000
1784847449.3287,2161,3147,346,1000
1784847449.3310,1586,3196,345,1000
1784847449.3332,1648,3191,344,1000
1784847449.3349,1667,3187,344,1000
1784847449.3367,1676,3183,343,1000
1784847449.3385,1687,3179,343,1000
1784847449.3403,1693,3168,343,1000
1784847449.3423,1699,3164,343,1000
1784847449.3443,1711,3162,343,1000
1784847449.3463,1725,3164,343,1000
1784847449.3485,1682,3195,343,1000
1784847449.3506,1629,3190,342,1000
1784847449.3528,1651,3188,341,1000
1784847449.3550,1667,3182,341,1000
1784847449.3571,1688,3181,341,1000
1784847449.3593,1683,3170,340,1000
1784847449.3612,1701,3166,340,1000
1784847449.3632,1716,3162,341,1000
1784847449.3651,1719,3159,341,1000
1784847449.3667,1726,3150,341,1000
1784847449.3682,1739,3215,341,1000
1784847449.3698,1645,3206,341,1000
1784847449.3714,1655,3201,340,1000
1784847449.3735,1661,3202,340,1000
1784847449.3757,1674,3191,339,1000
1784847449.3779,1695,3187,339,1000
1784847449.3800,1708,3182,339,1000
1784847449.3822,1711,3215,339,1000
1784847449.3844,1712,3174,339,1000
1784847449.3864,1729,3180,339,1000
1784847449.3885,1705,3220,339,1000
1784847449.3906,1647,3219,339,1000
1784847449.3928,1651,3206,338,1000
1784847449.3951,1667,3200,338,1000
1784847449.3973,1681,3207,338,1000
1784847449.3989,1687,3190,337,1000
1784847449.4006,1699,3181,337,1000
1784847449.4022,1711,3180,337,1000
1784847449.4038,1726,3172,338,1000
1784847449.4059,1739,3176,338,1000
1784847449.4079,1699,3243,338,1000
1784847449.4100,1642,3238,337,1000
1784847449.4121,1656,3238,337,1000
1784847449.4142,1666,3221,336,1000
1784847449.4163,1672,3217,336,1000
1784847449.4185,1681,3206,336,1000
1784847449.4207,1701,3207,336,1000
1784847449.4229,1713,3202,336,1000
1784847449.4283,1716,3197,336,1000
1784847449.4337,1729,3197,336,1000
1784847449.4392,1703,3226,336,1000
1784847449.4394,1658,3218,336,1000
1784847449.4397,1659,3218,335,1000
1784847449.4399,1667,3206,335,1000
1784847449.4402,1679,3203,335,1000
1784847449.4408,1696,3196,335,1000
1784847449.4414,1704,3190,335,1000
1784847449.4420,1705,3181,335,1000
1784847449.4440,1713,3186,335,1000
1784847449.4461,1731,3180,335,1000
1784847449.4482,1707,3232,335,1000
1784847449.4503,1638,3225,334,1000
1784847449.4524,1648,3218,334,1000
1784847449.4545,1671,3215,333,1000
1784847449.4567,1681,3211,333,1000
1784847449.4589,1680,3205,333,1000
1784847449.4610,1692,3193,333,1000
1784847449.4626,1712,3190,333,1000
1784847449.4641,1716,3187,333,1000
1784847449.4657,1717,3185,333,1000
1784847449.4672,1680,3220,333,1000
1784847449.4695,1646,3211,332,1000
1784847449.4718,1660,3212,332,1000
1784847449.4740,1660,3202,332,1000
1784847449.4761,1677,3198,331,1000
1784847449.4781,1714,3190,331,1000
1784847449.4802,1703,3185,331,1000
1784847449.4823,1717,3179,332,1000
1784847449.4843,1713,3185,332,1000
1784847449.4864,1733,3187,332,1000
1784847449.4886,1691,3248,332,1000
1784847449.4908,1645,3240,331,1000
1784847449.4930,1651,3238,331,1000
1784847449.4946,1668,3233,331,1000
1784847449.4961,1686,3227,330,1000
1784847449.4977,1693,3236,330,1000
1784847449.4993,1696,3215,330,1000
1784847449.5049,1704,3214,330,1000
1784847449.5105,1725,3204,330,1000
1784847449.5161,1728,3209,331,1000
1784847449.5164,1701,3231,331,1000
1784847449.5167,1641,3230,330,1000
1784847449.5170,1660,3218,330,1000
1784847449.5193,1678,3217,329,1000
1784847449.5217,1681,3204,329,1000
1784847449.5240,1680,3197,329,1000
1784847449.5242,1703,3193,329,1000
1784847449.5245,1713,3196,329,1000
1784847449.5247,1716,3198,329,1000
1784847449.5263,1725,3188,330,1000
1784847449.5279,1725,3221,330,1000
1784847449.5295,1650,3225,329,1000
1784847449.5311,1648,3209,329,1000
1784847449.5334,1660,3209,328,1000
1784847449.5357,1670,3197,328,1000
1784847449.5379,1687,3192,328,1000
1784847449.5402,1683,3194,328,1000
1784847449.5425,1705,3185,328,1000
1784847449.5448,1729,3178,328,1000
1784847449.5467,1750,3180,329,1000
1784847449.5486,1697,3243,329,1000
1784847449.5505,1647,3227,328,1000
1784847449.5526,1662,3234,328,1000
1784847449.5548,1675,3185,327,1000
1784847449.5570,1685,3220,327,1000
1784847449.5585,1685,3180,327,1000
1784847449.5600,1695,3212,327,1000
1784847449.5616,1707,3205,327,1000
1784847449.5631,1716,3200,327,1000
1784847449.5654,1719,3193,327,1000
1784847449.5676,3159,3224,342,1000
1784847449.5699,1600,3216,341,1000
1784847449.5720,1653,3209,340,1000
1784847449.5741,1656,3203,340,1000
1784847449.5762,1663,3179,339,1000
1784847449.5783,1688,3193,339,1000
1784847449.5804,1704,3209,339,1000
1784847449.5825,1709,3179,339,1000
1784847449.5846,1713,3176,339,1000
1784847449.5868,1728,3176,339,1000
1784847449.5889,1692,3212,339,1000
1784847449.5905,1648,3203,338,1000
1784847449.5921,1652,3200,337,1000
1784847449.5937,1671,3196,337,1000
1784847449.5952,1691,3188,337,1000
1784847449.6018,1694,3184,337,1000
1784847449.6085,1697,3180,337,1000
1784847449.6151,1703,3175,336,1000
1784847449.6152,1730,3205,337,1000
1784847449.6153,1727,3169,337,1000
1784847449.6154,1709,3201,337,1000
1784847449.6156,1642,3201,336,1000
1784847449.6157,1658,3206,336,1000
1784847449.6158,1675,3191,335,1000
1784847449.6175,1680,3166,335,1000
1784847449.6192,1684,3180,335,1000
1784847449.6209,1708,3189,335,1000
1784847449.6225,1717,3166,335,1000
1784847449.6241,1719,3165,335,1000
1784847449.6257,1721,3163,335,1000
1784847449.6273,1705,3197,335,1000
1784847449.6295,1644,3198,334,1000
1784847449.6317,1653,3187,334,1000
1784847449.6340,1655,3183,333,1000
1784847449.6360,1678,3172,333,1000
1784847449.6381,1702,3173,333,1000
1784847449.6402,1715,3163,333,1000
1784847449.6424,1718,3155,333,1000
1784847449.6446,1725,3156,333,1000
1784847449.6469,1735,3145,333,1000
1784847449.6489,1701,3205,333,1000
1784847449.6510,1626,3205,332,1000
1784847449.6531,1644,3182,332,1000
1784847449.6547,1666,3187,331,1000
1784847449.6563,1684,3177,331,1000
1784847449.6579,1690,3173,331,1000
1784847449.6595,1707,3167,331,1000
1784847449.6617,1723,3162,331,1000
1784847449.6639,1744,3156,331,1000
1784847449.6662,1720,3160,332,1000
1784847449.6682,1681,3180,331,1000
1784847449.6702,1642,3170,331,1000
1784847449.6721,1670,3177,330,1000
1784847449.6743,1660,3169,330,1000
1784847449.6765,1663,3157,329,1000
1784847449.6786,1689,3156,329,1000
1784847449.6808,1702,3149,329,1000
1784847449.6829,1709,3137,329,1000
1784847449.6851,1719,3144,329,1000
1784847449.6867,1735,3144,330,1000
1784847449.6882,1713,3199,330,1000
1784847449.6898,1649,3187,329,1000
1784847449.6914,1655,3184,329,1000
1784847449.6958,1680,3183,328,1000
1784847449.7003,1691,3182,328,1000
1784847449.7048,1693,3170,328,1000
1784847449.7049,1698,3165,328,1000
1784847449.7051,1716,3153,328,1000
1784847449.7053,1730,3154,328,1000
1784847449.7069,1757,3156,329,1000
1784847449.7086,1702,3196,329,1000
1784847449.7103,1635,3144,328,1000
1784847449.7124,1654,3182,327,1000
1784847449.7146,1669,3177,327,1000
1784847449.7168,1676,3139,327,1000
1784847449.7183,1682,3166,327,1000
1784847449.7199,1707,3158,327,1000
1784847449.7215,1716,3156,327,1000
1784847449.7231,1718,3151,327,1000
1784847449.7253,1724,3154,327,1000
1784847449.7275,1695,3180,327,1000
1784847449.7298,1646,3175,326,1000
1784847449.7318,1664,3165,326,1000
1784847449.7339,1671,3161,326,1000
1784847449.7359,1683,3158,325,1000
1784847449.7381,1707,3146,325,1000
1784847449.7404,1710,3147,325,1000
1784847449.7426,1710,3103,326,1000
1784847449.7448,1713,3137,326,1000
1784847449.7470,1742,3141,326,1000
1784847449.7492,1698,3187,326,1000
1784847449.7507,1642,3186,325,1000
1784847449.7521,1654,3153,325,1000
1784847449.7536,1670,3167,324,1000
1784847449.7551,1688,3172,324,1000
1784847449.7591,1686,3172,324,1000
1784847449.7631,1691,3157,324,1000
1784847449.7670,1710,3153,324,1000
1784847449.7674,1718,3124,324,1000
1784847449.7678,1718,3147,324,1000
1784847449.7682,1728,3185,325,1000
1784847449.7702,1643,3178,324,1000
1784847449.7722,1660,3164,324,1000
1784847449.7742,1662,3149,323,1000
1784847449.7764,1679,3165,323,1000
1784847449.7786,1709,3162,323,1000
1784847449.7808,1711,3151,323,1000
1784847449.7824,1730,3117,323,1000
1784847449.7840,1713,3142,323,1000
1784847449.7855,1707,3148,323,1000
1784847449.7871,1704,3186,323,1000
1784847449.7893,1637,3178,323,1000
1784847449.7916,1645,3174,322,1000
1784847449.7938,1660,3169,322,1000
1784847449.7959,1681,3169,321,1000
1784847449.7979,1684,3174,321,1000
1784847449.8000,1699,3155,321,1000
1784847449.8022,1701,3147,321,1000
1784847449.8043,1714,3140,321,1000
1784847449.8064,1725,3144,322,1000
1784847449.8086,1693,3198,322,1000
1784847449.8107,1644,3179,321,1000
1784847449.8129,1662,3182,321,1000
1784847449.8145,1665,3181,320,1000
1784847449.8161,1679,3180,320,1000
1784847449.8177,1696,3169,320,1000
1784847449.8193,1723,3164,320,1000
1784847449.8215,1731,3154,320,1000
1784847449.8237,1723,3153,321,1000
1784847449.8259,1725,3134,321,1000
1784847449.8281,1689,3194,321,1000
1784847449.8303,1579,3179,319,1000
1784847449.8324,1545,3182,318,1000
1784847449.8344,1581,3171,317,1000
1784847449.8364,1608,3163,316,1000
1784847449.8383,1628,3162,315,1000
1784847449.8406,1646,3160,315,1000
1784847449.8428,1651,3153,314,1000
1784847449.8450,1678,3153,314,1000
1784847449.8466,1697,3132,314,1000
1784847449.8483,1707,3136,314,1000
1784847449.8499,2614,3180,323,1000
1784847449.8515,1605,3220,322,1000
1784847449.8536,1642,3166,322,1000
1784847449.8558,1661,3162,321,1000
1784847449.8579,1667,3156,321,1000
1784847449.8600,1693,3148,321,1000
1784847449.8620,1705,3142,321,1000
1784847449.8641,1721,3137,321,1000
1784847449.8662,1724,3135,321,1000
1784847449.8682,2986,3206,334,1000
1784847449.8703,1631,3190,333,1000
1784847449.8724,1660,3185,333,1000
1784847449.8746,1665,3187,332,1000
1784847449.8768,1666,3175,332,1000
1784847449.8783,1692,3169,331,1000
1784847449.8799,1707,3159,331,1000
1784847449.8815,1710,3154,331,1000
1784847449.8831,1713,3159,331,1000
1784847449.8853,1723,3157,331,1000
1784847449.8875,1702,3203,331,1000
1784847449.8897,1648,3203,330,1000
1784847449.8918,1650,3192,330,1000
1784847449.8939,1677,3187,329,1000
1784847449.8960,1700,3181,329,1000
1784847449.9000,1726,3213,329,1000
1784847449.9040,1723,3190,329,1000
1784847449.9080,1720,3161,330,1000
1784847449.9082,1727,3174,330,1000
1784847449.9084,1733,3156,330,1000
1784847449.9087,1711,3194,330,1000
1784847449.9103,1625,3197,329,1000
1784847449.9119,1651,3175,328,1000
1784847449.9135,1679,3173,328,1000
1784847449.9151,1677,3165,328,1000
1784847449.9173,1682,3163,327,1000
1784847449.9195,1699,3157,327,1000
1784847449.9217,1710,3144,327,1000
1784847449.9239,1711,3149,327,1000
1784847449.9261,1715,3162,327,1000
1784847449.9282,1708,3182,327,1000
1784847449.9302,1648,3185,327,1000
1784847449.9323,1650,3183,326,1000
1784847449.9343,1663,3175,325,1000
1784847449.9365,1681,3168,325,1000
1784847449.9387,1701,3142,325,1000
1784847449.9408,1709,3156,325,1000
1784847449.9424,1715,3146,325,1000
1784847449.9440,1721,3133,325,1000
1784847449.9455,1733,3149,325,1000
1784847449.9471,1709,3199,325,1000
1784847449.9494,1641,3191,325,1000
1784847449.9517,1654,3187,324,1000
1784847449.9540,1670,3182,324,1000
1784847449.9560,1681,3175,323,1000
1784847449.9580,1684,3171,323,1000
1784847449.9600,1697,3167,323,1000
1784847449.9639,1713,3156,323,1000
1784847449.9678,1723,3163,323,1000
1784847449.9718,1707,3163,323,1000
1784847449.9722,1687,3192,323,1000
1784847449.9726,1654,3190,322,1000
1784847449.9730,1672,3176,322,1000
1784847449.9746,1676,3178,322,1000
1784847449.9761,1686,3176,321,1000
1784847449.9776,1693,3164,321,1000
1784847449.9792,1708,3159,321,1000
1784847449.9814,1708,3154,321,1000
1784847449.9836,1716,3154,321,1000
1784847449.9858,1727,3138,322,1000
1784847449.9879,1756,3188,322,1000
1784847449.9901,1645,3182,321,1000
1784847449.9922,1651,3180,321,1000
1784847449.9943,1662,3170,320,1000
1784847449.9963,1686,3162,320,1000
1784847449.9984,1699,3164,320,1000
1784847450.0008,1704,3157,320,1000
1784847450.0031,1712,3147,320,1000
1784847450.0055,1721,3147,320,1000
1784847450.0071,1725,3148,320,1000
1784847450.0087,1690,3172,320,1000
1784847450.0103,1638,3153,320,1000
1784847450.0119,1659,3153,319,1000
1784847450.0139,1684,3158,319,1000
1784847450.0160,1692,3146,319,1000
1784847450.0180,1677,3146,318,1000
1784847450.0202,1710,3137,318,1000
1784847450.0224,1717,3133,319,1000
1784847450.0246,1711,3127,319,1000
1784847450.0298,1713,3134,319,1000
1784847450.0349,1690,3160,318,1000
1784847450.0401,1652,3159,318,1000
1784847450.0403,1649,3192,317,1000
1784847450.0405,1652,3148,317,1000
1784847450.0408,1669,3146,316,1000
