host_time_s,chA_raw,chB_env
1784828931.0833,1766,2510
1784828931.0847,1759,2509
1784828931.0860,1764,2504
1784828931.0873,1740,2505
1784828931.0887,1739,2495
1784828931.0906,1726,2501
1784828931.0924,1729,2503
1784828931.0943,1742,2497
1784828931.0962,1757,2488
1784828931.0981,1748,2481
1784828931.1000,1763,2487
1784828931.1019,1769,2483
1784828931.1038,1761,2481
1784828931.1058,1754,2477
1784828931.1077,1742,2478
1784828931.1097,1759,2476
1784828931.1116,1751,2471
1784828931.1146,1752,2474
1784828931.1175,1748,2465
1784828931.1205,1745,2461
1784828931.1234,1752,2462
1784828931.1264,1762,2456
1784828931.1332,1763,2462
1784828931.1334,1760,2458
1784828931.1337,1746,2450
1784828931.1339,1745,2452
1784828931.1341,1750,2451
1784828931.1344,1768,2451
1784828931.1363,1774,2444
1784828931.1382,1755,2435
1784828931.1401,1766,2438
1784828931.1421,1759,2439
1784828931.1440,1743,2435
1784828931.1459,1729,2435
1784828931.1479,1734,2429
1784828931.1499,1754,2427
1784828931.1519,1767,2429
1784828931.1539,1771,2424
1784828931.1559,1772,2421
1784828931.1579,1777,2417
1784828931.1607,1768,2421
1784828931.1635,1738,2416
1784828931.1663,1722,2412
1784828931.1691,1726,2411
1784828931.1720,1738,2409
1784828931.1748,1745,2402
1784828931.1757,1757,2406
1784828931.1767,1756,2400
1784828931.1776,1760,2402
1784828931.1785,1769,2398
1784828931.1795,1753,2390
1784828931.1804,1773,2388
1784828931.1830,1766,2378
1784828931.1857,1773,2391
1784828931.1883,1766,2387
1784828931.1909,1740,2385
1784828931.1935,1741,2383
1784828931.1953,1726,2379
1784828931.1971,1733,2375
1784828931.1988,1750,2381
1784828931.2006,1758,2375
1784828931.2024,1767,2381
1784828931.2042,1772,2374
1784828931.2071,1774,2366
1784828931.2100,1768,2355
1784828931.2129,1745,2362
1784828931.2158,1736,2363
1784828931.2186,1722,2363
1784828931.2215,1746,2361
1784828931.2244,1741,2361
1784828931.2273,1738,2365
1784828931.2302,1744,2349
1784828931.2331,1769,2352
1784828931.2360,1767,2347
1784828931.2389,1756,2347
1784828931.2391,1770,2345
1784828931.2393,1776,2348
1784828931.2394,1769,2345
1784828931.2396,1739,2340
1784828931.2398,1743,2337
1784828931.2399,1756,2339
1784828931.2427,1752,2339
1784828931.2454,1755,2313
1784828931.2481,1758,2329
1784828931.2508,1795,2327
1784828931.2536,1800,2323
1784828931.2612,1798,2326
1784828931.2614,1770,2322
1784828931.2616,1753,2324
1784828931.2619,1730,2319
1784828931.2621,1703,2319
1784828931.2623,1697,2316
1784828931.2644,1720,2309
1784828931.2666,1734,2307
1784828931.2687,1740,2309
1784828931.2709,1741,2307
1784828931.2731,1760,2310
1784828931.2752,1766,2300
1784828931.2772,1777,2288
1784828931.2793,1745,2300
1784828931.2813,1731,2303
1784828931.2833,1736,2296
1784828931.2853,1765,2295
1784828931.2873,1783,2295
1784828931.2894,1774,2288
1784828931.2914,1772,2289
1784828931.2935,1738,2294
1784828931.2955,1714,2291
1784828931.2976,1717,2288
1784828931.2996,1732,2288
1784828931.3017,1761,2282
1784828931.3037,1767,2283
1784828931.3057,1765,2284
1784828931.3078,1773,2271
1784828931.3098,1754,2273
1784828931.3119,1754,2276
1784828931.3139,1743,2270
1784828931.3160,1735,2265
1784828931.3180,1754,2264
1784828931.3201,1773,2263
1784828931.3221,1754,2266
1784828931.3241,1755,2262
1784828931.3262,1774,2254
1784828931.3282,1771,2255
1784828931.3303,1757,2257
1784828931.3323,1759,2253
1784828931.3344,1758,2255
1784828931.3364,1751,2250
1784828931.3385,1746,2238
1784828931.3405,1753,2246
1784828931.3426,1761,2248
1784828931.3446,1769,2253
1784828931.3466,1754,2251
1784828931.3487,1756,2243
1784828931.3507,1759,2237
1784828931.3528,1751,2240
1784828931.3548,1739,2236
1784828931.3569,1743,2236
1784828931.3589,1757,2235
1784828931.3610,1762,2228
1784828931.3630,1748,2232
1784828931.3650,1765,2231
1784828931.3671,1752,2232
1784828931.3691,1762,2229
1784828931.3712,1763,2223
1784828931.3732,1779,2225
1784828931.3753,1779,2226
1784828931.3773,1784,2223
1784828931.3794,1732,2218
1784828931.3814,1728,2221
1784828931.3834,1706,2220
1784828931.3855,1724,2218
1784828931.3875,1738,2217
1784828931.3896,1746,2214
1784828931.3916,1745,2208
1784828931.3937,1755,2213
1784828931.3957,1747,2210
1784828931.3978,1750,2207
1784828931.3998,1753,2203
1784828931.4019,1758,2207
1784828931.4039,1755,2203
1784828931.4059,1764,2200
1784828931.4080,1765,2201
1784828931.4100,1764,2191
1784828931.4121,1761,2197
1784828931.4141,1749,2188
1784828931.4162,1744,2196
1784828931.4182,1751,2191
1784828931.4203,1772,2191
1784828931.4223,1776,2193
1784828931.4243,1769,2195
1784828931.4264,1756,2192
1784828931.4284,1756,2187
1784828931.4305,1731,2183
1784828931.4325,1740,2181
1784828931.4346,1732,2177
1784828931.4366,1751,2181
1784828931.4387,1749,2178
1784828931.4407,1751,2171
1784828931.4428,1755,2179
1784828931.4448,1767,2176
1784828931.4468,1781,2173
1784828931.4489,1781,2175
1784828931.4509,1753,2170
1784828931.4530,1748,2168
1784828931.4550,1748,2167
1784828931.4571,1737,2169
1784828931.4591,1721,2158
1784828931.4612,1743,2165
1784828931.4632,1756,2169
1784828931.4652,1757,2166
1784828931.4663,1757,2162
1784828931.4673,1768,2162
1784828931.4683,1765,2155
1784828931.4693,1760,2155
1784828931.4704,1740,2159
1784828931.4714,1738,2154
1784828931.4734,1769,2133
1784828931.4753,1781,2148
1784828931.4773,1774,2147
1784828931.4793,1757,2141
1784828931.4812,1757,2146
1784828931.4832,1755,2143
1784828931.4852,1753,2146
1784828931.4872,1749,2160
1784828931.4892,1754,2145
1784828931.4911,1763,2102
1784828931.4931,1765,2133
1784828931.4951,1758,2133
1784828931.4973,1735,2135
1784828931.4995,1742,2135
1784828931.5017,1724,2135
1784828931.5039,1729,2136
1784828931.5061,1746,2131
1784828931.5171,1758,2131
1784828931.5172,1745,2133
1784828931.5173,1751,2135
1784828931.5174,1769,2169
1784828931.5175,1774,2126
1784828931.5176,1765,2135
1784828931.5196,1743,2105
1784828931.5216,1742,2125
1784828931.5236,1760,2121
1784828931.5255,1774,2125
1784828931.5275,1762,2119
1784828931.5295,1753,2117
1784828931.5315,1764,2114
1784828931.5335,1760,2115
1784828931.5355,1751,2115
1784828931.5375,1749,2117
1784828931.5395,1768,2106
1784828931.5415,1769,2102
1784828931.5452,1750,2105
1784828931.5490,1740,2095
1784828931.5528,1744,2110
1784828931.5565,1751,2106
1784828931.5603,1751,2134
1784828931.5641,1749,2098
1784828931.5661,1755,2105
1784828931.5682,1773,2104
1784828931.5703,1770,2085
1784828931.5724,1770,2098
1784828931.5745,1773,2139
1784828931.5766,1744,2104
1784828931.5774,1730,2095
1784828931.5783,1729,2092
1784828931.5791,1739,2104
1784828931.5800,1748,2089
1784828931.5808,1749,2096
1784828931.5820,1746,2092
1784828931.5831,1761,2086
1784828931.5843,1775,2092
1784828931.5854,1788,2088
1784828931.5866,1761,2086
1784828931.5877,1767,2090
1784828931.5920,1766,2082
1784828931.5962,1783,2084
1784828931.6004,1757,2079
1784828931.6046,1735,2092
1784828931.6088,1743,2082
1784828931.6130,1735,2075
1784828931.6173,1715,2080
1784828931.6215,1721,2083
1784828931.6257,1742,2077
1784828931.6299,1760,2071
1784828931.6341,1758,2068
1784828931.6383,1747,2081
1784828931.6384,1747,2072
1784828931.6384,1775,2072
1784828931.6385,1776,2068
1784828931.6386,1749,2069
1784828931.6386,1753,2063
1784828931.6387,1751,2064
1784828931.6387,1748,2064
1784828931.6388,1751,2060
1784828931.6388,1746,2063
1784828931.6389,1761,2057
1784828931.6389,1768,2070
1784828931.6452,1769,2062
1784828931.6453,1766,2062
1784828931.6454,1767,2057
1784828931.6456,1763,2051
1784828931.6457,1755,2063
1784828931.6458,1732,2060
1784828931.6481,1766,2062
1784828931.6503,1768,2044
1784828931.6526,1751,2047
1784828931.6549,1747,2056
1784828931.6571,1747,2051
1784828931.6594,1763,2049
1784828931.6631,1769,2052
1784828931.6668,1773,2043
1784828931.6705,1763,2052
1784828931.6742,1743,2042
1784828931.6779,1718,2040
1784828931.6816,1728,2041
1784828931.6821,1745,2047
1784828931.6826,1764,2029
1784828931.6831,1768,2037
1784828931.6836,1755,2034
1784828931.6840,1763,2035
1784828931.6845,1776,2040
1784828931.6860,1752,2034
1784828931.6875,1767,2037
1784828931.6890,1741,2027
1784828931.6905,1736,2034
1784828931.6920,1739,2024
1784828931.6935,1744,2027
1784828931.6965,1750,2030
1784828931.6995,1762,2030
1784828931.7025,1772,2029
1784828931.7056,1763,2028
1784828931.7086,1732,2023
1784828931.7098,1743,2025
1784828931.7111,1768,2024
1784828931.7123,1755,2007
1784828931.7136,1727,2026
1784828931.7148,1749,2014
1784828931.7161,1756,2011
1784828931.7180,1750,2022
1784828931.7200,1747,2022
1784828931.7220,1756,2014
1784828931.7239,1772,2019
1784828931.7259,1760,2024
1784828931.7279,1742,2002
1784828931.7310,1738,2022
1784828931.7341,1762,2013
1784828931.7372,1764,2009
1784828931.7403,1749,2009
1784828931.7434,1752,2018
1784828931.7465,1764,2007
1784828931.7496,1776,2006
1784828931.7527,1770,2002
1784828931.7558,1762,2009
1784828931.7589,1772,2004
1784828931.7620,1770,1999
1784828931.7651,1751,2008
1784828931.7653,1723,2004
1784828931.7655,1743,1996
1784828931.7657,1745,2007
1784828931.7659,1751,2006
1784828931.7660,1740,1999
1784828931.7819,1740,1997
1784828931.7828,1745,1993
1784828931.7838,1752,1995
1784828931.7847,1743,1998
1784828931.7856,1747,1998
1784828931.7866,1756,1991
1784828931.7875,1758,1999
1784828931.7885,1759,1996
1784828931.7894,1757,2000
1784828931.7903,1764,1996
1784828931.7913,1766,1986
1784828931.7922,1764,1988
1784828931.7933,1747,1994
1784828931.7944,1751,1987
1784828931.7955,1764,1983
1784828931.7965,1754,1991
1784828931.7976,1755,1990
1784828931.7987,1749,1988
1784828931.8005,1757,1985
1784828931.8022,1744,1987
1784828931.8040,1744,1979
1784828931.8058,1741,1983
1784828931.8076,1755,1984
1784828931.8093,1753,1974
1784828931.8111,1743,1981
1784828931.8130,1738,1973
1784828931.8148,1778,1982
1784828931.8166,1771,2005
1784828931.8184,1750,1971
1784828931.8202,1761,1979
1784828931.8232,1753,1974
1784828931.8263,1745,1978
1784828931.8293,1751,1974
1784828931.8323,1753,1975
1784828931.8353,1750,1979
1784828931.8368,1753,1964
1784828931.8384,1725,1972
1784828931.8399,1750,1970
1784828931.8414,1769,1974
1784828931.8430,1772,1979
1784828931.8445,1742,1974
1784828931.8474,1741,1964
1784828931.8504,1761,1968
1784828931.8533,1764,1964
1784828931.8563,1740,1989
1784828931.8592,1723,1992
1784828931.8622,1734,1959
1784828931.8630,1757,1971
1784828931.8638,1764,1948
1784828931.8647,1751,1944
1784828931.8655,1757,1966
1784828931.8663,1772,1955
1784828931.8671,1762,1957
1784828931.8691,1759,1958
1784828931.8711,1761,1968
1784828931.8731,1767,1964
1784828931.8751,1768,1960
1784828931.8771,1756,1954
1784828931.8791,1753,1974
1784828931.8813,1769,1961
1784828931.8836,1769,2004
1784828931.8859,1772,1934
1784828931.8881,1746,1952
1784828931.8904,1759,1958
1784828931.9011,1756,1939
1784828931.9012,1746,1960
1784828931.9013,1752,1951
1784828931.9014,1770,1953
1784828931.9015,1783,1965
1784828931.9016,1778,1953
1784828931.9036,1757,1954
1784828931.9056,1730,1950
1784828931.9075,1723,1950
1784828931.9095,1721,1948
1784828931.9115,1724,1945
1784828931.9135,1753,1942
1784828931.9172,1764,1943
1784828931.9209,1760,1956
1784828931.9246,1764,1941
1784828931.9283,1772,1937
1784828931.9320,1775,1947
1784828931.9357,1750,1946
1784828931.9360,1737,1943
1784828931.9363,1732,1988
1784828931.9365,1767,1941
1784828931.9368,1762,1938
1784828931.9371,1753,1943
1784828931.9373,1743,1940
1784828931.9391,1754,1932
1784828931.9409,1760,1939
1784828931.9426,1745,1939
1784828931.9444,1725,1942
1784828931.9461,1739,1940
1784828931.9479,1759,1942
1784828931.9517,1750,1937
1784828931.9554,1745,1936
1784828931.9592,1753,1928
1784828931.9630,1768,1935
1784828931.9667,1753,1953
1784828931.9678,1746,1935
1784828931.9688,1760,1931
1784828931.9699,1744,1981
1784828931.9709,1759,1931
1784828931.9720,1757,1909
1784828931.9730,1767,1932
1784828931.9753,1782,1922
1784828931.9776,1779,1930
1784828931.9799,1765,1929
1784828931.9823,1744,1940
1784828931.9846,1748,1933
1784828931.9869,1755,1923
1784828931.9884,1736,1928
1784828931.9900,1735,1929
1784828931.9915,1748,1923
1784828931.9930,1760,1923
1784828931.9946,1757,1925
1784828931.9961,1749,1929
1784828931.9992,1756,1925
1784828932.0022,1768,1929
1784828932.0052,1769,1924
1784828932.0083,1778,1927
1784828932.0113,1789,1920
1784828932.0143,1793,1931
1784828932.0156,1744,1925
1784828932.0168,1709,1920
1784828932.0180,1724,1922
1784828932.0193,1750,1915
1784828932.0205,1744,1920
1784828932.0292,1728,1913
1784828932.0294,1734,1915
1784828932.0296,1734,1917
1784828932.0298,1760,1916
1784828932.0300,1753,1903
1784828932.0302,1749,1918
1784828932.0322,1763,1913
1784828932.0342,1766,1912
1784828932.0363,1753,1917
1784828932.0383,1738,1919
1784828932.0403,1756,1920
1784828932.0424,1754,1913
1784828932.0446,1755,1907
1784828932.0468,1738,1914
1784828932.0490,1752,1913
1784828932.0512,1759,1915
1784828932.0534,1746,1899
1784828932.0556,1753,1909
1784828932.0574,1756,1910
1784828932.0591,1779,1909
1784828932.0608,1782,1913
1784828932.0626,1771,1905
1784828932.0643,1762,1906
1784828932.0660,1750,1911
1784828932.0682,1729,1905
1784828932.0704,1739,1907
1784828932.0726,1748,1903
1784828932.0747,1762,1906
1784828932.0769,1762,1905
1784828932.0791,1759,1902
1784828932.0808,1750,1905
1784828932.0826,1767,1902
1784828932.0844,1779,1908
1784828932.0862,1756,1902
1784828932.0879,1750,1898
1784828932.0901,1774,1897
1784828932.0922,1776,1905
1784828932.0944,1751,1896
1784828932.0965,1722,1901
1784828932.0986,1742,1903
1784828932.1008,1760,1894
1784828932.1026,1756,1894
1784828932.1044,1732,1900
1784828932.1061,1733,1895
1784828932.1079,1741,1895
1784828932.1097,1751,1900
1784828932.1115,1754,1892
1784828932.1135,1763,1896
1784828932.1154,1791,1893
1784828932.1174,1780,1910
1784828932.1194,1762,1902
1784828932.1213,1739,1890
1784828932.1233,1737,1901
1784828932.1253,1743,1886
1784828932.1273,1760,1892
1784828932.1293,1767,1895
1784828932.1313,1765,1895
1784828932.1333,1761,1899
1784828932.1353,1747,1891
1784828932.1375,1738,1887
1784828932.1397,1745,1890
1784828932.1419,1743,1892
1784828932.1441,1738,1889
1784828932.1463,1751,1892
1784828932.1758,1758,1890
1784828932.1758,1761,1894
1784828932.1759,1749,1895
1784828932.1760,1740,1896
1784828932.1761,1745,1892
1784828932.1761,1764,1889
1784828932.1762,1764,1887
1784828932.1763,1764,1884
1784828932.1764,1753,1888
1784828932.1765,1767,1879
1784828932.1765,1770,1886
1784828932.1766,1759,1883
1784828932.1786,1756,1889
1784828932.1807,1768,1883
1784828932.1827,1751,1882
1784828932.1847,1743,1884
1784828932.1867,1746,1878
1784828932.1888,1766,1886
1784828932.1896,1766,1879
1784828932.1904,1757,1883
1784828932.1912,1764,1881
1784828932.1920,1768,1885
1784828932.1929,1763,1887
1784828932.1937,1751,1878
1784828932.1955,1738,1878
1784828932.1973,1750,1882
1784828932.1991,1755,1873
1784828932.2010,1745,1875
1784828932.2028,1747,1879
1784828932.2046,1744,1878
1784828932.2067,1762,1866
1784828932.2088,1761,1873
1784828932.2109,1766,1877
1784828932.2130,1756,1870
1784828932.2151,1769,1880
1784828932.2172,1752,1876
1784828932.2194,1710,1867
1784828932.2215,1720,1879
1784828932.2236,1741,1871
1784828932.2257,1745,1868
1784828932.2278,1756,1872
1784828932.2298,1748,1871
1784828932.2319,1764,1871
1784828932.2340,1766,1872
1784828932.2361,1767,1875
1784828932.2381,1768,1868
1784828932.2402,1780,1874
1784828932.2425,1787,1877
1784828932.2447,1760,1834
1784828932.2469,1737,1866
1784828932.2491,1732,1865
1784828932.2514,1743,1871
1784828932.2536,1743,1858
1784828932.2553,1738,1861
1784828932.2571,1754,1871
1784828932.2588,1774,1866
1784828932.2605,1777,1872
1784828932.2623,1761,1865
1784828932.2640,1750,1867
1784828932.2662,1744,1865
1784828932.2684,1742,1857
1784828932.2706,1745,1867
1784828932.2728,1750,1859
1784828932.2750,1764,1858
1784828932.2851,1772,1863
1784828932.2860,1758,1866
1784828932.2869,1767,1857
1784828932.2879,1744,1869
1784828932.2888,1745,1864
1784828932.2897,1745,1870
1784828932.2915,1743,1862
1784828932.2934,1770,1859
1784828932.2952,1779,1853
1784828932.2971,1774,1861
1784828932.2989,1744,1857
1784828932.3008,1744,1865
1784828932.3032,1735,1865
1784828932.3056,1728,1859
1784828932.3080,1719,1854
1784828932.3104,1743,1854
1784828932.3128,1763,1856
1784828932.3152,1762,1855
1784828932.3163,1747,1861
1784828932.3174,1753,1847
1784828932.3185,1764,1855
1784828932.3196,1769,1849
1784828932.3207,1766,1855
1784828932.3218,1764,1858
1784828932.3240,1765,1861
1784828932.3262,1762,1858
1784828932.3283,1759,1847
1784828932.3305,1751,1848
1784828932.3327,1749,1851
1784828932.3349,1756,1850
1784828932.3370,1745,1850
1784828932.3391,1744,1855
1784828932.3412,1754,1853
1784828932.3433,1762,1853
1784828932.3454,1767,1851
1784828932.3472,1755,1854
1784828932.3490,1756,1852
1784828932.3509,1767,1846
1784828932.3527,1749,1855
1784828932.3545,1743,1853
1784828932.3563,1744,1853
1784828932.3582,1748,1854
1784828932.3601,1750,1853
1784828932.3619,1744,1838
1784828932.3638,1745,1855
1784828932.3656,1763,1854
1784828932.3675,1763,1849
1784828932.3700,1748,1849
1784828932.3724,1751,1849
1784828932.3749,1762,1839
1784828932.3773,1743,1842
1784828932.3798,1726,1831
1784828932.3823,1746,1846
1784828932.3847,1754,1854
1784828932.3871,1781,1849
1784828932.3895,1778,1843
1784828932.3919,1755,1848
1784828932.3943,1756,1839
1784828932.3967,1750,1843
1784828932.3983,1738,1849
1784828932.4000,1735,1848
1784828932.4017,1746,1848
1784828932.4033,1754,1849
1784828932.4050,1760,1856
1784828932.4131,1764,1846
1784828932.4134,1775,1837
1784828932.4137,1793,1842
1784828932.4140,1793,1842
1784828932.4143,1755,1847
1784828932.4145,1737,1834
1784828932.4180,1738,1845
1784828932.4215,1714,1841
1784828932.4249,1715,1842
1784828932.4284,1716,1850
1784828932.4318,1743,1850
1784828932.4353,1752,1840
1784828932.4356,1744,1842
1784828932.4360,1749,1843
1784828932.4364,1759,1845
1784828932.4367,1765,1845
1784828932.4371,1760,1838
1784828932.4375,1759,1849
1784828932.4395,1772,1835
1784828932.4416,1773,1841
1784828932.4436,1766,1842
1784828932.4457,1760,1837
1784828932.4477,1761,1838
1784828932.4498,1759,1838
1784828932.4515,1755,1835
1784828932.4532,1750,1839
1784828932.4549,1755,1839
1784828932.4566,1765,1839
1784828932.4583,1770,1840
1784828932.4600,1758,1845
1784828932.4623,1759,1836
1784828932.4646,1776,1841
1784828932.4670,1769,1831
1784828932.4693,1746,1838
1784828932.4716,1741,1840
1784828932.4738,1752,1839
1784828932.4759,1767,1839
1784828932.4781,1743,1839
1784828932.4803,1760,1836
1784828932.4824,1764,1846
1784828932.4846,1770,1833
1784828932.4865,1760,1839
1784828932.4884,1737,1834
1784828932.4902,1752,1836
1784828932.4921,1745,1838
1784828932.4940,1765,1831
1784828932.4959,1732,1829
1784828932.4977,1736,1836
1784828932.4996,1755,1835
1784828932.5014,1749,1833
1784828932.5033,1757,1836
1784828932.5052,1765,1826
1784828932.5070,1761,1833
1784828932.5091,1756,1829
1784828932.5111,1732,1833
1784828932.5132,1728,1832
1784828932.5153,1748,1826
1784828932.5173,1745,1843
1784828932.5194,1738,1827
1784828932.5215,1745,1834
1784828932.5236,1765,1828
1784828932.5257,1768,1826
1784828932.5278,1755,1822
1784828932.5298,1784,1834
1784828932.5412,1793,1832
1784828932.5414,1809,1846
1784828932.5416,1809,1831
1784828932.5418,1763,1825
1784828932.5420,1722,1823
1784828932.5422,1686,1827
1784828932.5441,1725,1824
1784828932.5459,1728,1832
1784828932.5477,1744,1828
1784828932.5496,1746,1824
1784828932.5514,1757,1829
1784828932.5533,1764,1825
1784828932.5553,1764,1827
1784828932.5573,1786,1827
1784828932.5593,1769,1830
1784828932.5613,1758,1827
1784828932.5633,1763,1828
1784828932.5653,1753,1825
1784828932.5673,1742,1830
1784828932.5692,1753,1821
1784828932.5712,1746,1829
1784828932.5731,1764,1821
1784828932.5751,1754,1825
1784828932.5770,1764,1828
1784828932.5788,1767,1833
1784828932.5806,1774,1818
1784828932.5824,1751,1824
1784828932.5842,1738,1821
1784828932.5860,1732,1823
1784828932.5878,1745,1824
1784828932.5902,1763,1825
1784828932.5926,1756,1816
1784828932.5949,1745,1824
1784828932.5973,1761,1818
1784828932.5996,1769,1826
1784828932.6016,1772,1819
1784828932.6036,1764,1827
1784828932.6056,1759,1821
1784828932.6076,1752,1816
1784828932.6096,1730,1819
1784828932.6116,1745,1822
1784828932.6142,1749,1819
1784828932.6168,1768,1818
1784828932.6194,1762,1823
1784828932.6220,1752,1825
1784828932.6246,1771,1818
1784828932.6272,1754,1819
1784828932.6286,1742,1828
1784828932.6299,1737,1820
1784828932.6312,1754,1822
1784828932.6325,1758,1819
1784828932.6339,1743,1818
1784828932.6352,1754,1814
1784828932.6372,1746,1821
1784828932.6392,1746,1825
1784828932.6412,1742,1811
1784828932.6432,1742,1816
1784828932.6452,1745,1825
1784828932.6472,1761,1814
1784828932.6494,1759,1815
1784828932.6516,1756,1812
1784828932.6538,1736,1814
1784828932.6560,1742,1818
1784828932.6582,1751,1816
1784828932.6692,1745,1816
1784828932.6693,1749,1815
1784828932.6695,1752,1815
1784828932.6696,1763,1817
1784828932.6697,1769,1811
1784828932.6699,1762,1812
1784828932.6718,1776,1809
1784828932.6738,1768,1815
1784828932.6757,1756,1813
1784828932.6776,1748,1812
1784828932.6796,1771,1819
1784828932.6815,1775,1812
1784828932.6835,1773,1812
1784828932.6855,1764,1794
1784828932.6875,1737,1813
1784828932.6895,1730,1816
1784828932.6915,1738,1809
1784828932.6935,1740,1808
1784828932.6958,1749,1813
1784828932.6980,1754,1812
1784828932.7002,1764,1812
1784828932.7024,1768,1811
1784828932.7047,1753,1807
1784828932.7069,1765,1816
1784828932.7084,1783,1810
1784828932.7099,1764,1820
1784828932.7115,1754,1810
1784828932.7130,1740,1817
1784828932.7145,1756,1812
1784828932.7161,1759,1811
1784828932.7185,1740,1809
1784828932.7210,1729,1811
1784828932.7235,1720,1811
1784828932.7260,1732,1806
1784828932.7284,1744,1811
1784828932.7303,1753,1806
1784828932.7322,1759,1815
1784828932.7341,1770,1814
1784828932.7360,1757,1808
1784828932.7379,1747,1807
1784828932.7398,1762,1809
1784828932.7417,1768,1805
1784828932.7437,1770,1809
1784828932.7457,1762,1812
1784828932.7476,1774,1809
1784828932.7496,1777,1801
1784828932.7515,1757,1804
1784828932.7535,1740,1812
1784828932.7554,1773,1807
1784828932.7574,1751,1810
1784828932.7593,1748,1809
1784828932.7613,1746,1806
1784828932.7632,1765,1807
1784828932.7663,1788,1807
1784828932.7693,1781,1812
1784828932.7723,1757,1802
1784828932.7754,1752,1803
1784828932.7784,1734,1809
1784828932.7815,1727,1800
1784828932.7824,1720,1776
1784828932.7832,1733,1813
1784828932.7841,1746,1804
1784828932.7850,1752,1807
1784828932.7859,1751,1804
1784828932.7971,1750,1808
1784828932.7973,1767,1798
1784828932.7974,1764,1809
1784828932.7975,1766,1805
1784828932.7976,1767,1803
1784828932.7978,1762,1809
1784828932.7997,1753,1805
1784828932.8016,1754,1805
1784828932.8036,1758,1807
1784828932.8055,1763,1805
1784828932.8075,1761,1807
1784828932.8094,1754,1796
1784828932.8114,1744,1802
1784828932.8134,1740,1795
1784828932.8155,1759,1807
1784828932.8175,1765,1801
1784828932.8195,1747,1802
1784828932.8216,1753,1802
1784828932.8236,1758,1802
1784828932.8255,1770,1807
1784828932.8275,1766,1802
1784828932.8295,1756,1805
1784828932.8315,1747,1804
1784828932.8335,1752,1807
1784828932.8353,1745,1804
1784828932.8370,1756,1796
1784828932.8388,1763,1806
1784828932.8405,1762,1801
1784828932.8423,1767,1798
1784828932.8440,1762,1804
1784828932.8464,1758,1807
1784828932.8487,1752,1802
1784828932.8510,1747,1802
1784828932.8534,1727,1801
1784828932.8557,1725,1805
1784828932.8584,1746,1801
1784828932.8610,1755,1800
1784828932.8637,1760,1799
1784828932.8663,1748,1798
1784828932.8690,1758,1803
1784828932.8716,1759,1798
1784828932.8730,1749,1802
1784828932.8743,1765,1793
1784828932.8757,1770,1801
1784828932.8770,1766,1798
1784828932.8783,1752,1799
1784828932.8797,1752,1797
1784828932.8816,1766,1799
1784828932.8835,1767,1800
1784828932.8855,1739,1803
1784828932.8874,1724,1799
1784828932.8893,1756,1799
1784828932.8912,1770,1795
1784828932.8932,1758,1805
1784828932.8952,1745,1798
1784828932.8972,1741,1797
1784828932.8992,1763,1796
1784828932.9012,1766,1792
1784828932.9032,1756,1796
1784828932.9053,1770,1792
1784828932.9075,1776,1801
1784828932.9096,1752,1807
1784828932.9118,1752,1801
1784828932.9139,1727,1795
1784828932.9252,1755,1799
1784828932.9253,1749,1792
1784828932.9254,1742,1801
1784828932.9256,1738,1801
1784828932.9257,1760,1794
1784828932.9259,1759,1798
1784828932.9279,1759,1793
1784828932.9299,1765,1800
1784828932.9319,1764,1798
1784828932.9340,1767,1792
1784828932.9360,1753,1794
1784828932.9380,1754,1798
1784828932.9405,1764,1795
1784828932.9430,1771,1812
1784828932.9455,1774,1806
1784828932.9479,1760,1799
1784828932.9504,1744,1793
1784828932.9529,1743,1798
1784828932.9543,1739,1794
1784828932.9557,1745,1798
1784828932.9570,1754,1794
1784828932.9584,1773,1794
1784828932.9598,1770,1801
1784828932.9612,1763,1803
1784828932.9630,1753,1803
1784828932.9648,1765,1794
1784828932.9666,1765,1799
1784828932.9684,1745,1804
1784828932.9702,1718,1797
1784828932.9721,1735,1793
1784828932.9744,1728,1800
1784828932.9767,1746,1793
1784828932.9790,1739,1792
1784828932.9813,1756,1799
1784828932.9836,1751,1793
1784828932.9856,1752,1789
1784828932.9876,1744,1782
1784828932.9896,1754,1793
1784828932.9916,1767,1794
1784828932.9936,1751,1793
1784828932.9957,1747,1794
1784828932.9981,1756,1793
1784828933.0006,1780,1792
1784828933.0031,1764,1791
1784828933.0056,1754,1789
1784828933.0081,1745,1796
1784828933.0105,1746,1795
1784828933.0120,1756,1793
1784828933.0134,1748,1792
1784828933.0148,1753,1793
1784828933.0163,1761,1791
1784828933.0177,1759,1794
1784828933.0191,1754,1796
1784828933.0211,1754,1789
1784828933.0231,1756,1794
1784828933.0251,1762,1789
1784828933.0271,1753,1797
1784828933.0291,1763,1785
1784828933.0310,1769,1789
1784828933.0334,1776,1791
1784828933.0357,1756,1800
1784828933.0380,1746,1794
1784828933.0403,1744,1791
1784828933.0426,1734,1798
1784828933.0531,1740,1787
1784828933.0532,1736,1791
1784828933.0534,1746,1797
1784828933.0535,1751,1795
1784828933.0537,1760,1785
1784828933.0538,1757,1795
1784828933.0557,1754,1791
1784828933.0577,1756,1787
1784828933.0596,1762,1780
1784828933.0615,1747,1792
1784828933.0635,1760,1784
1784828933.0654,1761,1789
1784828933.0674,1750,1786
1784828933.0694,1731,1787
1784828933.0714,1742,1784
1784828933.0734,1755,1792
1784828933.0755,1759,1786
1784828933.0775,1743,1788
1784828933.0794,1773,1784
1784828933.0814,1787,1795
1784828933.0833,1772,1788
1784828933.0853,1749,1786
1784828933.0873,1724,1784
1784828933.0892,1721,1791
1784828933.0910,1730,1788
1784828933.0928,1749,1790
1784828933.0947,1745,1784
1784828933.0965,1746,1791
1784828933.0983,1769,1784
1784828933.1001,1769,1781
1784828933.1024,1751,1781
1784828933.1047,1746,1787
1784828933.1071,1753,1788
1784828933.1094,1759,1786
1784828933.1117,1748,1782
1784828933.1137,1750,1789
1784828933.1158,1762,1788
1784828933.1178,1767,1786
1784828933.1199,1756,1788
1784828933.1219,1760,1791
1784828933.1240,1766,1786
1784828933.1264,1761,1793
1784828933.1288,1742,1787
1784828933.1312,1744,1782
1784828933.1336,1746,1789
1784828933.1360,1751,1787
1784828933.1384,1759,1786
1784828933.1400,1757,1790
1784828933.1415,1769,1786
1784828933.1430,1769,1793
1784828933.1445,1753,1785
1784828933.1460,1752,1790
1784828933.1475,1741,1780
1784828933.1495,1757,1788
1784828933.1514,1763,1780
1784828933.1533,1754,1789
1784828933.1553,1757,1790
1784828933.1572,1771,1790
1784828933.1591,1753,1786
1784828933.1613,1731,1782
1784828933.1635,1739,1786
1784828933.1657,1752,1789
1784828933.1679,1748,1792
1784828933.1701,1750,1789
1784828933.1811,1752,1785
1784828933.1813,1763,1784
1784828933.1815,1775,1784
1784828933.1817,1765,1781
1784828933.1819,1761,1789
1784828933.1821,1757,1781
1784828933.1840,1764,1786
1784828933.1859,1766,1788
1784828933.1878,1741,1787
1784828933.1897,1741,1782
1784828933.1917,1750,1788
1784828933.1936,1754,1786
1784828933.1956,1750,1795
1784828933.1975,1759,1781
1784828933.1995,1765,1786
1784828933.2015,1752,1785
1784828933.2035,1758,1786
1784828933.2054,1769,1786
1784828933.2074,1774,1789
1784828933.2094,1773,1777
1784828933.2113,1757,1782
1784828933.2133,1733,1773
1784828933.2152,1732,1789
1784828933.2172,1737,1779
1784828933.2190,1738,1775
1784828933.2208,1743,1776
1784828933.2226,1754,1778
1784828933.2245,1763,1785
1784828933.2263,1755,1789
1784828933.2281,1756,1784
1784828933.2304,1769,1806
1784828933.2328,1738,1782
1784828933.2351,1717,1791
1784828933.2374,1727,1783
1784828933.2397,1746,1783
1784828933.2418,1740,1780
1784828933.2438,1751,1780
1784828933.2459,1756,1777
1784828933.2480,1763,1787
1784828933.2500,1776,1776
1784828933.2521,1779,1782
1784828933.2540,1771,1784
1784828933.2560,1756,1784
1784828933.2579,1745,1788
1784828933.2598,1745,1780
1784828933.2618,1741,1787
1784828933.2637,1749,1780
1784828933.2656,1760,1783
1784828933.2676,1768,1794
1784828933.2695,1749,1787
1784828933.2714,1761,1783
1784828933.2733,1767,1782
1784828933.2753,1772,1782
1784828933.2778,1765,1789
1784828933.2803,1768,1780
1784828933.2828,1761,1787
1784828933.2854,1770,1788
1784828933.2879,1778,1783
1784828933.2904,1761,1785
1784828933.2923,1748,1781
1784828933.2943,1745,1789
1784828933.2962,1735,1784
1784828933.2981,1722,1783
1784828933.3000,1737,1783
1784828933.3091,1757,1781
1784828933.3093,1754,1784
1784828933.3094,1759,1784
1784828933.3096,1759,1782
1784828933.3097,1758,1783
1784828933.3098,1752,1783
1784828933.3118,1736,1788
1784828933.3137,1738,1787
1784828933.3156,1745,1781
1784828933.3175,1747,1784
1784828933.3195,1758,1778
1784828933.3214,1759,1779
1784828933.3234,1766,1780
1784828933.3254,1767,1775
1784828933.3274,1752,1785
1784828933.3294,1738,1786
1784828933.3315,1752,1781
1784828933.3335,1742,1788
1784828933.3354,1745,1780
1784828933.3374,1760,1763
1784828933.3393,1769,1792
1784828933.3413,1776,1780
1784828933.3432,1777,1786
1784828933.3452,1750,1782
1784828933.3470,1750,1782
1784828933.3489,1760,1799
1784828933.3507,1757,1790
1784828933.3526,1743,1781
1784828933.3545,1747,1777
1784828933.3563,1748,1772
1784828933.3598,1747,1791
1784828933.3632,1749,1777
1784828933.3667,1763,1784
1784828933.3702,1779,1790
1784828933.3736,1765,1784
1784828933.3746,1720,1781
1784828933.3756,1725,1784
1784828933.3766,1720,1793
1784828933.3776,1734,1783
1784828933.3786,1744,1785
1784828933.3796,1747,1783
1784828933.3816,1750,1786
1784828933.3836,1762,1773
1784828933.3855,1745,1783
1784828933.3875,1731,1786
1784828933.3895,1749,1782
1784828933.3915,1759,1781
1784828933.3934,1765,1786
1784828933.3954,1771,1786
1784828933.3973,1775,1785
1784828933.3992,1777,1778
1784828933.4012,1766,1780
1784828933.4031,1746,1783
1784828933.4051,1744,1781
1784828933.4072,1770,1778
1784828933.4092,1773,1786
1784828933.4112,1776,1790
1784828933.4132,1781,1778
1784828933.4152,1771,1777
1784828933.4174,1759,1781
1784828933.4195,1741,1782
1784828933.4217,1710,1780
1784828933.4239,1726,1747
1784828933.4260,1736,1783
1784828933.4373,1746,1781
1784828933.4374,1745,1782
1784828933.4376,1755,1786
1784828933.4377,1766,1777
1784828933.4378,1757,1780
1784828933.4380,1773,1746
1784828933.4399,1762,1780
1784828933.4418,1772,1783
1784828933.4437,1740,1782
1784828933.4456,1728,1782
1784828933.4475,1739,1778
1784828933.4495,1754,1780
1784828933.4516,1750,1797
1784828933.4537,1744,1774
1784828933.4558,1759,1780
1784828933.4579,1760,1786
1784828933.4600,1772,1778
1784828933.4621,1766,1779
1784828933.4639,1761,1765
1784828933.4658,1761,1781
1784828933.4677,1748,1778
1784828933.4696,1747,1780
1784828933.4715,1755,1763
1784828933.4733,1768,1785
1784828933.4751,1755,1779
1784828933.4770,1751,1786
1784828933.4788,1746,1777
1784828933.4806,1759,1775
1784828933.4824,1768,1776
1784828933.4842,1758,1776
1784828933.4865,1732,1770
1784828933.4888,1731,1760
1784828933.4911,1745,1782
1784828933.4934,1741,1743
1784828933.4957,1745,1784
1784828933.4989,1764,1783
1784828933.5021,1772,1790
1784828933.5052,1783,1787
1784828933.5084,1786,1779
1784828933.5115,1770,1787
1784828933.5147,1767,1766
1784828933.5155,1741,1780
1784828933.5163,1720,1779
1784828933.5170,1711,1775
1784828933.5178,1707,1781
1784828933.5186,1720,1770
1784828933.5194,1733,1787
1784828933.5213,1746,1783
1784828933.5233,1769,1789
1784828933.5253,1786,1786
1784828933.5273,1788,1785
1784828933.5292,1766,1788
1784828933.5312,1753,1826
1784828933.5332,1749,1799
1784828933.5352,1762,1822
1784828933.5372,1745,1794
1784828933.5392,1748,1791
1784828933.5412,1766,1788
1784828933.5432,1751,1795
1784828933.5454,1748,1781
1784828933.5476,1757,1784
1784828933.5498,1747,1790
1784828933.5520,1737,1757
1784828933.5541,1742,1795
1784828933.5651,1761,1793
1784828933.5653,1761,1793
1784828933.5655,1754,1782
1784828933.5657,1756,1817
1784828933.5659,1739,1789
1784828933.5661,1749,1785
1784828933.5680,1761,1787
1784828933.5699,1762,1790
1784828933.5718,1756,1796
1784828933.5737,1765,1789
1784828933.5756,1768,1810
1784828933.5775,1753,1790
1784828933.5797,1751,1777
1784828933.5820,1760,1780
1784828933.5842,1759,1771
1784828933.5864,1766,1795
1784828933.5887,1761,1786
1784828933.5909,1762,1791
1784828933.5926,1755,1790
1784828933.5943,1744,1784
1784828933.5960,1739,1787
1784828933.5977,1730,1788
1784828933.5994,1752,1784
1784828933.6011,1748,1783
1784828933.6030,1746,1785
1784828933.6048,1772,1787
1784828933.6066,1782,1783
1784828933.6084,1789,1782
1784828933.6102,1780,1796
1784828933.6120,1749,1789
1784828933.6144,1734,1789
1784828933.6168,1732,1789
1784828933.6192,1733,1786
1784828933.6216,1737,1785
1784828933.6240,1743,1789
1784828933.6260,1746,1788
1784828933.6280,1741,1789
1784828933.6299,1740,1783
1784828933.6319,1736,1787
1784828933.6338,1745,1794
1784828933.6358,1749,1787
1784828933.6378,1753,1800
1784828933.6397,1766,1785
1784828933.6417,1768,1783
1784828933.6436,1762,1785
1784828933.6456,1751,1776
1784828933.6475,1769,1787
1784828933.6508,1774,1781
1784828933.6540,1783,1765
1784828933.6573,1753,1789
1784828933.6605,1752,1778
1784828933.6638,1769,1783
1784828933.6670,1759,1789
1784828933.6677,1760,1789
1784828933.6684,1754,1779
1784828933.6691,1746,1785
1784828933.6698,1753,1784
1784828933.6705,1741,1785
1784828933.6712,1743,1785
1784828933.6733,1759,1776
1784828933.6755,1751,1786
1784828933.6777,1745,1784
1784828933.6799,1738,1786
1784828933.6821,1758,1783
1784828933.6931,1767,1787
1784828933.6932,1762,1783
1784828933.6934,1765,1787
1784828933.6935,1763,1785
1784828933.6936,1775,1787
1784828933.6938,1778,1787
1784828933.6957,1738,1782
1784828933.6977,1732,1775
1784828933.6996,1725,1783
1784828933.7016,1716,1782
1784828933.7035,1712,1784
1784828933.7055,1738,1785
1784828933.7075,1751,1785
1784828933.7095,1747,1780
1784828933.7115,1747,1780
1784828933.7135,1761,1786
1784828933.7154,1772,1784
1784828933.7174,1761,1784
1784828933.7194,1749,1784
1784828933.7213,1749,1812
1784828933.7233,1756,1787
1784828933.7252,1766,1789
1784828933.7272,1759,1777
1784828933.7291,1750,1781
1784828933.7309,1766,1780
1784828933.7328,1800,1793
1784828933.7346,1789,1791
1784828933.7364,1781,1789
1784828933.7382,1775,1793
1784828933.7400,1758,1781
1784828933.7424,1729,1788
1784828933.7447,1726,1788
1784828933.7471,1739,1791
1784828933.7495,1744,1785
1784828933.7518,1756,1788
1784828933.7538,1749,1791
1784828933.7558,1750,1791
1784828933.7578,1754,1793
1784828933.7598,1752,1788
1784828933.7618,1744,1787
1784828933.7638,1751,1797
1784828933.7658,1762,1792
1784828933.7678,1782,1789
1784828933.7698,1774,1778
1784828933.7718,1765,1789
1784828933.7737,1752,1784
1784828933.7757,1742,1789
1784828933.7777,1725,1789
1784828933.7796,1740,1781
1784828933.7815,1748,1786
1784828933.7834,1753,1784
1784828933.7853,1742,1800
1784828933.7872,1729,1783
1784828933.7904,1756,1787
1784828933.7935,1764,1787
1784828933.7966,1762,1795
1784828933.7998,1754,1780
1784828933.8029,1762,1788
1784828933.8061,1774,1789
1784828933.8068,1782,1793
1784828933.8076,1767,1789
1784828933.8084,1768,1781
1784828933.8091,1743,1795
1784828933.8099,1737,1787
1784828933.8211,1751,1792
1784828933.8213,1763,1809
1784828933.8214,1763,1800
1784828933.8215,1747,1796
1784828933.8217,1742,1779
1784828933.8218,1755,1783
1784828933.8237,1772,1785
1784828933.8257,1765,1786
1784828933.8276,1735,1785
1784828933.8296,1733,1785
1784828933.8315,1737,1772
1784828933.8335,1746,1810
1784828933.8355,1751,1787
1784828933.8375,1757,1773
1784828933.8395,1762,1755
1784828933.8415,1766,1788
1784828933.8435,1754,1787
1784828933.8455,1763,1773
1784828933.8474,1755,1787
1784828933.8494,1764,1782
1784828933.8514,1745,1790
1784828933.8533,1738,1782
1784828933.8553,1745,1791
1784828933.8573,1757,1788
1784828933.8591,1763,1788
1784828933.8610,1768,1781
1784828933.8628,1764,1780
1784828933.8647,1763,1777
1784828933.8665,1740,1788
1784828933.8684,1741,1784
1784828933.8708,1739,1783
1784828933.8732,1763,1790
1784828933.8756,1766,1786
1784828933.8780,1750,1787
1784828933.8804,1744,1805
1784828933.8823,1767,1790
1784828933.8842,1760,1783
1784828933.8862,1758,1746
1784828933.8881,1760,1786
1784828933.8900,1775,1785
1784828933.8919,1767,1834
1784828933.8938,1765,1787
1784828933.8957,1746,1784
1784828933.8976,1744,1767
1784828933.8995,1760,1782
1784828933.9014,1763,1796
1784828933.9033,1749,1781
1784828933.9053,1746,1782
1784828933.9073,1764,1785
1784828933.9093,1761,1785
1784828933.9113,1749,1779
1784828933.9133,1758,1782
1784828933.9152,1756,1769
1784828933.9172,1763,1783
1784828933.9192,1739,1784
1784828933.9212,1741,1784
1784828933.9232,1753,1788
1784828933.9251,1762,1783
1784828933.9271,1761,1779
1784828933.9309,1748,1777
1784828933.9347,1756,1781
1784828933.9384,1762,1786
1784828933.9422,1739,1779
1784828933.9459,1739,1785
1784828933.9491,1741,1783
1784828933.9492,1754,1788
1784828933.9494,1754,1787
1784828933.9496,1760,1781
1784828933.9497,1752,1781
1784828933.9499,1758,1781
1784828933.9518,1765,1828
1784828933.9537,1763,1775
1784828933.9556,1750,1778
1784828933.9576,1765,1746
1784828933.9595,1757,1777
1784828933.9614,1740,1781
1784828933.9634,1746,1782
1784828933.9654,1753,1787
1784828933.9674,1752,1782
1784828933.9694,1748,1785
1784828933.9714,1743,1780
1784828933.9734,1741,1783
1784828933.9754,1749,1780
1784828933.9774,1772,1784
1784828933.9795,1764,1770
1784828933.9815,1785,1777
1784828933.9835,1777,1789
1784828933.9855,1757,1766
1784828933.9873,1739,1784
1784828933.9891,1754,1786
1784828933.9909,1747,1778
1784828933.9927,1744,1780
1784828933.9945,1739,1794
1784828933.9962,1749,1780
1784828933.9986,1766,1782
1784828934.0009,1769,1778
1784828934.0032,1760,1783
1784828934.0055,1758,1782
1784828934.0078,1764,1779
1784828934.0101,1771,1779
1784828934.0125,1779,1777
1784828934.0148,1757,1776
1784828934.0171,1742,1787
1784828934.0194,1750,1781
1784828934.0218,1749,1782
1784828934.0234,1757,1778
1784828934.0250,1745,1780
1784828934.0266,1767,1775
1784828934.0282,1778,1762
1784828934.0299,1750,1779
1784828934.0315,1765,1777
1784828934.0334,1760,1771
1784828934.0354,1755,1780
1784828934.0374,1740,1787
1784828934.0393,1751,1768
1784828934.0413,1773,1771
1784828934.0432,1769,1783
1784828934.0452,1738,1776
1784828934.0473,1728,1773
1784828934.0493,1738,1776
1784828934.0513,1733,1774
1784828934.0533,1749,1782
1784828934.0553,1745,1775
1784828934.0575,1755,1786
1784828934.0596,1759,1778
1784828934.0618,1744,1773
1784828934.0639,1762,1782
1784828934.0661,1786,1776
1784828934.0771,1807,1779
1784828934.0773,1776,1781
1784828934.0774,1771,1772
1784828934.0776,1769,1777
1784828934.0777,1781,1774
1784828934.0778,1760,1781
1784828934.0798,1735,1780
1784828934.0818,1718,1777
1784828934.0838,1713,1778
1784828934.0859,1734,1779
1784828934.0879,1723,1776
1784828934.0899,1745,1790
1784828934.0919,1757,1790
1784828934.0940,1769,1783
1784828934.0961,1759,1780
1784828934.0981,1749,1777
1784828934.1002,1759,1771
1784828934.1023,1775,1777
1784828934.1041,1766,1776
1784828934.1059,1750,1789
1784828934.1077,1731,1776
1784828934.1095,1746,1783
1784828934.1113,1742,1776
1784828934.1131,1737,1775
1784828934.1149,1750,1773
1784828934.1168,1759,1774
1784828934.1186,1746,1779
1784828934.1204,1743,1781
1784828934.1223,1760,1778
1784828934.1241,1763,1777
1784828934.1265,1762,1763
1784828934.1288,1759,1777
1784828934.1311,1765,1781
1784828934.1335,1769,1783
1784828934.1358,1768,1780
1784828934.1378,1764,1775
1784828934.1398,1766,1778
1784828934.1418,1766,1779
1784828934.1438,1746,1782
1784828934.1458,1729,1781
1784828934.1477,1730,1779
1784828934.1497,1734,1777
1784828934.1516,1747,1779
1784828934.1536,1744,1775
1784828934.1556,1747,1783
1784828934.1575,1754,1776
1784828934.1595,1760,1777
1784828934.1636,1759,1774
1784828934.1678,1755,1781
1784828934.1719,1767,1782
1784828934.1761,1758,1774
1784828934.1802,1750,1777
1784828934.1843,1755,1769
1784828934.1845,1755,1783
1784828934.1846,1750,1786
1784828934.1847,1745,1781
1784828934.1849,1734,1780
1784828934.1850,1735,1778
1784828934.1851,1750,1781
1784828934.1870,1757,1778
1784828934.1890,1747,1774
1784828934.1909,1758,1781
1784828934.1929,1768,1775
1784828934.1948,1762,1774
1784828934.2051,1768,1775
1784828934.2053,1775,1780
1784828934.2055,1776,1774
1784828934.2056,1772,1775
1784828934.2058,1768,1775
1784828934.2060,1741,1782
1784828934.2079,1745,1776
1784828934.2098,1743,1776
1784828934.2117,1720,1776
1784828934.2136,1727,1781
1784828934.2156,1745,1785
1784828934.2175,1760,1780
1784828934.2199,1760,1784
1784828934.2222,1767,1783
1784828934.2246,1774,1779
1784828934.2270,1772,1774
1784828934.2294,1771,1781
1784828934.2318,1753,1776
1784828934.2334,1741,1782
1784828934.2349,1732,1781
1784828934.2365,1734,1781
1784828934.2381,1762,1779
1784828934.2396,1771,1785
1784828934.2412,1754,1784
1784828934.2434,1750,1781
1784828934.2456,1735,1780
1784828934.2477,1738,1780
1784828934.2499,1751,1780
1784828934.2521,1759,1770
1784828934.2543,1759,1768
1784828934.2567,1758,1777
1784828934.2591,1762,1780
1784828934.2614,1759,1777
1784828934.2638,1770,1781
1784828934.2662,1758,1778
1784828934.2678,1749,1783
1784828934.2695,1766,1786
1784828934.2711,1766,1778
1784828934.2728,1751,1776
1784828934.2744,1754,1779
1784828934.2761,1770,1780
1784828934.2780,1748,1780
1784828934.2799,1733,1773
1784828934.2819,1734,1774
1784828934.2838,1749,1776
1784828934.2857,1745,1773
1784828934.2876,1742,1778
1784828934.2896,1745,1778
1784828934.2915,1770,1783
1784828934.2935,1758,1765
1784828934.2954,1762,1773
1784828934.2974,1780,1778
1784828934.2993,1764,1774
1784828934.3013,1747,1775
1784828934.3033,1744,1773
1784828934.3053,1739,1776
1784828934.3073,1735,1778
1784828934.3093,1736,1781
1784828934.3113,1739,1777
1784828934.3142,1749,1777
1784828934.3171,1765,1776
1784828934.3200,1771,1783
1784828934.3230,1775,1776
1784828934.3259,1768,1775
1784828934.3331,1764,1773
1784828934.3332,1748,1763
1784828934.3333,1745,1779
1784828934.3334,1733,1772
1784828934.3335,1732,1780
1784828934.3336,1743,1783
1784828934.3356,1750,1769
1784828934.3375,1756,1776
1784828934.3395,1763,1774
1784828934.3415,1770,1769
1784828934.3434,1759,1778
1784828934.3454,1756,1775
1784828934.3474,1752,1773
1784828934.3494,1754,1792
1784828934.3514,1743,1773
1784828934.3534,1743,1775
1784828934.3554,1740,1781
1784828934.3573,1755,1775
1784828934.3595,1752,1782
1784828934.3617,1756,1772
1784828934.3638,1740,1781
1784828934.3660,1743,1776
1784828934.3681,1755,1773
1784828934.3703,1748,1791
1784828934.3724,1748,1763
1784828934.3746,1765,1782
1784828934.3767,1764,1777
1784828934.3789,1768,1775
1784828934.3810,1749,1776
1784828934.3832,1767,1779
1784828934.3849,1773,1775
1784828934.3866,1742,1771
1784828934.3883,1735,1771
1784828934.3900,1750,1767
1784828934.3917,1753,1772
1784828934.3937,1754,1766
1784828934.3957,1757,1764
1784828934.3978,1759,1769
1784828934.3998,1755,1777
1784828934.4018,1759,1780
1784828934.4038,1772,1777
1784828934.4058,1773,1769
1784828934.4077,1770,1774
1784828934.4096,1754,1775
1784828934.4115,1726,1776
1784828934.4135,1722,1771
1784828934.4154,1740,1775
1784828934.4174,1756,1768
1784828934.4194,1751,1769
1784828934.4214,1747,1769
1784828934.4234,1747,1766
1784828934.4254,1747,1782
1784828934.4274,1754,1773
1784828934.4293,1768,1774
1784828934.4313,1776,1775
1784828934.4332,1771,1772
1784828934.4352,1744,1773
1784828934.4372,1731,1775
1784828934.4391,1733,1772
1784828934.4413,1741,1775
1784828934.4435,1738,1772
1784828934.4456,1763,1764
1784828934.4478,1772,1779
1784828934.4500,1749,1771
1784828934.4612,1762,1773
1784828934.4613,1758,1773
1784828934.4614,1748,1775
1784828934.4616,1760,1769
1784828934.4617,1754,1774
1784828934.4618,1761,1781
1784828934.4639,1747,1767
1784828934.4660,1772,1775
1784828934.4681,1771,1769
1784828934.4701,1763,1766
1784828934.4722,1741,1776
1784828934.4743,1748,1769
1784828934.4762,1761,1769
1784828934.4781,1748,1770
1784828934.4799,1746,1776
1784828934.4818,1752,1769
1784828934.4837,1785,1771
1784828934.4856,1742,1769
1784828934.4875,1726,1772
1784828934.4895,1736,1771
1784828934.4915,1764,1775
1784828934.4934,1741,1782
1784828934.4954,1742,1767
1784828934.4974,1741,1777
1784828934.4993,1764,1777
1784828934.5012,1747,1778
1784828934.5031,1751,1771
1784828934.5050,1737,1768
1784828934.5069,1743,1771
1784828934.5088,1764,1768
1784828934.5110,1768,1775
1784828934.5132,1764,1773
1784828934.5154,1757,1770
1784828934.5176,1761,1770
1784828934.5198,1743,1765
1784828934.5218,1743,1773
1784828934.5238,1773,1769
1784828934.5258,1783,1768
1784828934.5278,1776,1779
1784828934.5298,1769,1772
1784828934.5319,1754,1778
1784828934.5338,1745,1765
1784828934.5357,1742,1764
1784828934.5377,1729,1777
1784828934.5396,1753,1772
1784828934.5416,1778,1779
1784828934.5435,1774,1787
1784828934.5459,1739,1779
1784828934.5484,1736,1759
1784828934.5508,1733,1782
1784828934.5532,1731,1775
1784828934.5556,1746,1782
1784828934.5581,1725,1781
1784828934.5606,1747,1776
1784828934.5631,1758,1784
1784828934.5657,1769,1780
1784828934.5682,1774,1787
1784828934.5707,1780,1784
1784828934.5733,1754,1781
1784828934.5742,1745,1783
1784828934.5751,1736,1783
1784828934.5761,1744,1779
1784828934.5770,1759,1786
1784828934.5779,1752,1784
1784828934.5891,1748,1778
1784828934.5892,1780,1778
1784828934.5894,1769,1779
1784828934.5895,1757,1777
1784828934.5897,1752,1780
1784828934.5898,1747,1780
1784828934.5918,1771,1783
1784828934.5937,1771,1786
1784828934.5957,1772,1775
1784828934.5977,1788,1784
1784828934.5996,1741,1778
1784828934.6016,1742,1779
1784828934.6037,1742,1777
1784828934.6057,1763,1777
1784828934.6077,1776,1780
1784828934.6098,1768,1778
1784828934.6118,1756,1779
1784828934.6139,1768,1777
1784828934.6165,1774,1774
1784828934.6192,1757,1781
1784828934.6218,1745,1777
1784828934.6245,1734,1783
1784828934.6271,1743,1777
1784828934.6298,1742,1773
1784828934.6308,1736,1778
1784828934.6319,1719,1778
1784828934.6329,1733,1782
1784828934.6340,1755,1770
1784828934.6350,1760,1775
1784828934.6360,1770,1774
1784828934.6384,1782,1777
1784828934.6407,1772,1783
1784828934.6430,1735,1776
1784828934.6454,1725,1773
1784828934.6477,1756,1777
1784828934.6497,1758,1781
1784828934.6517,1773,1777
1784828934.6537,1764,1775
1784828934.6557,1767,1773
1784828934.6577,1758,1774
1784828934.6597,1744,1777
1784828934.6617,1741,1776
1784828934.6636,1758,1772
1784828934.6656,1761,1778
1784828934.6676,1758,1777
1784828934.6695,1754,1776
1784828934.6715,1746,1777
1784828934.6734,1747,1770
1784828934.6754,1755,1779
1784828934.6773,1736,1777
1784828934.6793,1743,1773
1784828934.6813,1761,1775
1784828934.6832,1765,1771
1784828934.6852,1760,1776
1784828934.6872,1743,1769
1784828934.6892,1752,1774
1784828934.6912,1754,1777
1784828934.6932,1754,1775
1784828934.6952,1754,1779
1784828934.6976,1756,1776
1784828934.6999,1762,1780
1784828934.7023,1762,1779
1784828934.7046,1758,1776
1784828934.7070,1760,1776
1784828934.7171,1774,1778
1784828934.7173,1773,1779
1784828934.7175,1748,1776
1784828934.7177,1742,1776
1784828934.7179,1743,1776
1784828934.7181,1741,1779
1784828934.7200,1746,1775
1784828934.7219,1763,1777
1784828934.7237,1746,1778
1784828934.7256,1741,1778
1784828934.7275,1731,1779
1784828934.7294,1742,1777
1784828934.7315,1757,1771
1784828934.7335,1753,1777
1784828934.7355,1761,1776
1784828934.7376,1732,1783
1784828934.7396,1753,1777
1784828934.7416,1759,1776
1784828934.7435,1758,1780
1784828934.7455,1740,1770
1784828934.7474,1735,1781
1784828934.7493,1757,1783
1784828934.7512,1757,1774
1784828934.7532,1750,1782
1784828934.7550,1767,1778
1784828934.7568,1776,1782
1784828934.7586,1781,1778
1784828934.7604,1752,1777
1784828934.7622,1722,1778
1784828934.7641,1741,1785
1784828934.7676,1755,1782
1784828934.7712,1749,1784
1784828934.7748,1747,1776
1784828934.7784,1744,1776
1784828934.7820,1747,1778
1784828934.7830,1757,1783
1784828934.7839,1761,1780
1784828934.7848,1761,1780
1784828934.7858,1776,1776
1784828934.7867,1760,1770
1784828934.7877,1757,1777
1784828934.7896,1748,1781
1784828934.7916,1758,1778
1784828934.7935,1761,1775
1784828934.7955,1750,1780
1784828934.7975,1736,1770
1784828934.7994,1765,1777
1784828934.8014,1762,1783
1784828934.8034,1745,1772
1784828934.8053,1731,1773
1784828934.8073,1744,1780
1784828934.8093,1751,1776
1784828934.8112,1749,1782
1784828934.8133,1752,1774
1784828934.8154,1769,1785
1784828934.8176,1763,1778
1784828934.8197,1760,1777
1784828934.8218,1750,1772
1784828934.8239,1759,1774
1784828934.8263,1773,1774
1784828934.8287,1775,1775
1784828934.8311,1751,1778
1784828934.8335,1750,1772
1784828934.8360,1762,1772
1784828934.8499,1748,1774
1784828934.8511,1750,1775
1784828934.8523,1746,1780
1784828934.8535,1760,1774
1784828934.8546,1765,1773
1784828934.8558,1754,1776
1784828934.8561,1742,1772
1784828934.8563,1732,1781
1784828934.8566,1744,1775
1784828934.8568,1764,1779
1784828934.8571,1763,1775
1784828934.8574,1759,1775
1784828934.8594,1748,1777
1784828934.8614,1748,1774
1784828934.8634,1763,1782
1784828934.8654,1759,1773
1784828934.8674,1754,1777
1784828934.8694,1734,1772
1784828934.8714,1751,1773
1784828934.8733,1753,1792
1784828934.8753,1762,1776
1784828934.8772,1744,1774
1784828934.8792,1744,1775
1784828934.8812,1761,1777
1784828934.8830,1759,1778
1784828934.8849,1745,1774
1784828934.8868,1742,1772
1784828934.8887,1758,1778
1784828934.8905,1775,1774
1784828934.8924,1782,1784
1784828934.8947,1770,1780
1784828934.8969,1765,1789
1784828934.8992,1759,1778
1784828934.9014,1755,1779
1784828934.9037,1742,1782
1784828934.9071,1742,1776
1784828934.9105,1744,1782
1784828934.9139,1753,1782
1784828934.9172,1735,1780
1784828934.9206,1734,1782
1784828934.9240,1766,1781
1784828934.9248,1761,1779
1784828934.9256,1764,1777
1784828934.9263,1758,1775
1784828934.9271,1749,1780
1784828934.9279,1762,1781
1784828934.9287,1757,1779
1784828934.9304,1743,1778
1784828934.9322,1755,1769
1784828934.9339,1755,1776
1784828934.9357,1755,1777
1784828934.9374,1748,1779
1784828934.9391,1750,1779
1784828934.9412,1768,1776
1784828934.9432,1761,1778
1784828934.9452,1764,1780
1784828934.9472,1759,1777
1784828934.9492,1747,1783
1784828934.9512,1755,1779
1784828934.9534,1748,1778
1784828934.9556,1759,1776
1784828934.9577,1763,1781
1784828934.9599,1755,1778
1784828934.9621,1747,1782
1784828934.9731,1738,1776
1784828934.9733,1757,1780
1784828934.9734,1751,1780
1784828934.9736,1726,1783
1784828934.9737,1733,1772
1784828934.9739,1755,1781
1784828934.9768,1757,1781
1784828934.9798,1746,1772
1784828934.9827,1742,1784
1784828934.9857,1761,1778
1784828934.9886,1759,1778
1784828934.9916,1761,1773
1784828934.9926,1764,1779
1784828934.9936,1766,1777
1784828934.9946,1771,1743
1784828934.9956,1764,1772
1784828934.9966,1756,1777
1784828934.9976,1751,1773
1784828934.9995,1763,1782
1784828935.0015,1766,1772
1784828935.0034,1747,1777
1784828935.0053,1745,1781
1784828935.0073,1754,1751
1784828935.0092,1769,1781
1784828935.0110,1760,1767
1784828935.0128,1754,1768
1784828935.0146,1752,1780
1784828935.0165,1760,1775
1784828935.0183,1762,1778
1784828935.0201,1755,1772
1784828935.0225,1748,1774
1784828935.0248,1741,1775
1784828935.0272,1739,1778
1784828935.0295,1773,1795
1784828935.0319,1770,1771
1784828935.0339,1769,1778
1784828935.0359,1765,1778
1784828935.0379,1754,1747
1784828935.0398,1740,1741
1784828935.0418,1753,1773
1784828935.0438,1734,1774
1784828935.0457,1727,1771
1784828935.0477,1747,1775
1784828935.0496,1773,1771
1784828935.0515,1775,1776
1784828935.0534,1758,1773
1784828935.0554,1757,1776
1784828935.0574,1745,1750
1784828935.0594,1749,1777
1784828935.0614,1734,1775
1784828935.0634,1744,1774
1784828935.0654,1732,1777
1784828935.0674,1746,1752
1784828935.0694,1748,1790
1784828935.0714,1756,1775
1784828935.0735,1761,1773
1784828935.0755,1767,1778
1784828935.0775,1749,1787
1784828935.0796,1757,1780
1784828935.0817,1770,1784
1784828935.0837,1778,1783
1784828935.0858,1768,1771
1784828935.0879,1751,1777
1784828935.0900,1778,1772
1784828935.1011,1779,1784
1784828935.1012,1747,1804
1784828935.1014,1745,1784
1784828935.1015,1746,1810
1784828935.1017,1741,1776
1784828935.1018,1743,1786
1784828935.1038,1741,1782
1784828935.1058,1731,1814
1784828935.1078,1752,1782
1784828935.1098,1753,1780
1784828935.1117,1753,1776
1784828935.1137,1744,1788
1784828935.1157,1746,1782
1784828935.1177,1747,1782
1784828935.1197,1759,1787
1784828935.1217,1754,1789
1784828935.1237,1769,1785
1784828935.1257,1775,1779
1784828935.1278,1763,1778
1784828935.1299,1754,1782
1784828935.1320,1769,1778
1784828935.1340,1762,1782
1784828935.1361,1745,1778
1784828935.1382,1745,1780
1784828935.1431,1743,1780
1784828935.1481,1766,1784
1784828935.1530,1755,1789
1784828935.1579,1746,1778
1784828935.1629,1756,1787
1784828935.1678,1754,1778
1784828935.1680,1743,1784
1784828935.1683,1748,1809
1784828935.1685,1756,1777
1784828935.1687,1747,1776
1784828935.1689,1746,1779
1784828935.1695,1748,1775
1784828935.1700,1736,1779
1784828935.1706,1758,1778
1784828935.1711,1748,1772
1784828935.1716,1747,1777
1784828935.1722,1759,1784
1784828935.1741,1777,1775
1784828935.1761,1790,1789
1784828935.1781,1762,1785
1784828935.1800,1734,1789
1784828935.1820,1727,1787
1784828935.1839,1744,1782
1784828935.1859,1750,1773
1784828935.1879,1744,1791
1784828935.1898,1736,1790
1784828935.1918,1752,1795
1784828935.1937,1767,1789
1784828935.1957,1759,1783
1784828935.1977,1769,1787
1784828935.1997,1778,1791
1784828935.2017,1767,1788
1784828935.2037,1762,1793
1784828935.2056,1738,1782
1784828935.2076,1749,1798
1784828935.2098,1766,1785
1784828935.2120,1745,1791
1784828935.2141,1755,1784
1784828935.2163,1751,1795
1784828935.2185,1754,1788
1784828935.2293,1745,1775
1784828935.2295,1742,1787
1784828935.2297,1747,1786
1784828935.2299,1747,1784
1784828935.2300,1759,1791
1784828935.2302,1753,1792
1784828935.2324,1757,1788
1784828935.2345,1751,1784
1784828935.2366,1746,1784
1784828935.2387,1749,1781
1784828935.2408,1753,1788
1784828935.2429,1769,1785
1784828935.2447,1762,1785
1784828935.2466,1753,1785
1784828935.2484,1760,1786
1784828935.2502,1753,1791
1784828935.2520,1747,1788
1784828935.2539,1738,1789
1784828935.2559,1758,1787
1784828935.2579,1762,1787
1784828935.2599,1769,1780
1784828935.2619,1758,1791
1784828935.2639,1751,1784
1784828935.2659,1750,1783
1784828935.2679,1772,1789
1784828935.2699,1767,1785
1784828935.2719,1754,1781
1784828935.2739,1752,1788
1784828935.2759,1748,1784
1784828935.2780,1732,1790
1784828935.2805,1741,1785
1784828935.2831,1761,1777
1784828935.2857,1768,1787
1784828935.2882,1754,1787
1784828935.2908,1749,1789
1784828935.2924,1756,1778
1784828935.2940,1773,1788
1784828935.2956,1764,1784
1784828935.2972,1756,1789
1784828935.2988,1755,1786
1784828935.3004,1752,1782
1784828935.3023,1750,1788
1784828935.3042,1724,1784
1784828935.3061,1726,1788
1784828935.3080,1744,1784
1784828935.3099,1750,1783
1784828935.3118,1753,1785
1784828935.3138,1757,1784
1784828935.3158,1773,1784
1784828935.3177,1780,1783
1784828935.3197,1800,1791
1784828935.3217,1769,1799
1784828935.3237,1746,1786
1784828935.3258,1730,1787
1784828935.3278,1733,1796
1784828935.3299,1728,1785
1784828935.3320,1741,1785
1784828935.3340,1734,1800
1784828935.3361,1743,1789
1784828935.3382,1746,1788
1784828935.3404,1764,1786
1784828935.3425,1770,1793
1784828935.3446,1785,1795
1784828935.3468,1781,1785
1784828935.3571,1777,1786
1784828935.3573,1759,1790
1784828935.3574,1759,1792
1784828935.3575,1744,1789
1784828935.3577,1745,1790
1784828935.3578,1746,1787
1784828935.3597,1751,1795
1784828935.3617,1745,1783
1784828935.3636,1756,1791
1784828935.3655,1753,1785
1784828935.3674,1754,1786
1784828935.3694,1755,1791
1784828935.3714,1756,1795
1784828935.3733,1771,1794
1784828935.3753,1776,1786
1784828935.3773,1763,1787
1784828935.3793,1753,1786
1784828935.3813,1740,1777
1784828935.3833,1751,1782
1784828935.3852,1758,1785
1784828935.3872,1752,1787
1784828935.3892,1753,1776
1784828935.3911,1765,1777
1784828935.3931,1779,1784
1784828935.3951,1749,1787
1784828935.3972,1763,1792
1784828935.3992,1761,1781
1784828935.4013,1748,1790
1784828935.4033,1748,1789
1784828935.4054,1763,1798
1784828935.4074,1767,1786
1784828935.4095,1759,1789
1784828935.4115,1727,1783
1784828935.4136,1734,1802
1784828935.4156,1757,1790
1784828935.4176,1752,1771
1784828935.4196,1756,1784
1784828935.4216,1747,1788
1784828935.4236,1733,1782
1784828935.4256,1755,1786
1784828935.4277,1750,1781
1784828935.4296,1742,1813
1784828935.4315,1742,1780
1784828935.4335,1769,1788
1784828935.4354,1751,1779
1784828935.4374,1748,1784
1784828935.4393,1750,1780
1784828935.4413,1760,1786
1784828935.4433,1770,1785
1784828935.4453,1768,1811
1784828935.4472,1776,1813
1784828935.4492,1788,1787
1784828935.4512,1774,1781
1784828935.4539,1739,1786
1784828935.4566,1743,1786
1784828935.4593,1754,1783
1784828935.4620,1751,1780
1784828935.4648,1753,1781
1784828935.4675,1760,1785
1784828935.4687,1770,1783
1784828935.4700,1767,1790
1784828935.4713,1744,1786
1784828935.4726,1741,1783
1784828935.4738,1743,1777
1784828935.4850,1758,1781
1784828935.4851,1752,1793
1784828935.4852,1745,1783
1784828935.4853,1754,1782
1784828935.4854,1757,1778
1784828935.4855,1743,1781
1784828935.4875,1742,1788
1784828935.4895,1764,1776
1784828935.4914,1762,1776
1784828935.4934,1748,1778
1784828935.4953,1751,1783
1784828935.4973,1766,1781
1784828935.4993,1775,1782
1784828935.5014,1772,1776
1784828935.5034,1756,1780
1784828935.5054,1734,1777
1784828935.5075,1748,1779
1784828935.5095,1748,1781
1784828935.5114,1743,1771
1784828935.5133,1746,1782
1784828935.5153,1745,1781
1784828935.5172,1744,1782
1784828935.5191,1755,1781
1784828935.5210,1755,1777
1784828935.5228,1763,1776
1784828935.5247,1767,1777
1784828935.5265,1766,1776
1784828935.5283,1746,1785
1784828935.5302,1741,1781
1784828935.5320,1770,1783
1784828935.5343,1748,1781
1784828935.5366,1749,1778
1784828935.5389,1773,1780
1784828935.5412,1772,1782
1784828935.5436,1748,1778
1784828935.5457,1737,1777
1784828935.5478,1743,1776
1784828935.5500,1757,1783
1784828935.5521,1770,1784
1784828935.5542,1758,1783
1784828935.5563,1747,1775
1784828935.5582,1749,1780
1784828935.5600,1755,1787
1784828935.5618,1746,1784
1784828935.5636,1745,1779
1784828935.5654,1758,1772
1784828935.5672,1771,1771
1784828935.5692,1758,1776
1784828935.5712,1755,1781
1784828935.5731,1766,1782
1784828935.5751,1773,1785
1784828935.5770,1775,1778
1784828935.5790,1756,1770
1784828935.5812,1743,1778
1784828935.5833,1753,1780
1784828935.5855,1738,1779
1784828935.5876,1742,1776
1784828935.5897,1760,1781
1784828935.5919,1766,1781
1784828935.5939,1749,1773
1784828935.5959,1741,1782
1784828935.5979,1743,1770
1784828935.5999,1744,1781
1784828935.6019,1751,1782
1784828935.6132,1744,1779
1784828935.6133,1751,1778
1784828935.6135,1764,1776
1784828935.6136,1768,1771
1784828935.6137,1766,1782
1784828935.6138,1741,1783
1784828935.6157,1743,1777
1784828935.6176,1754,1780
1784828935.6196,1753,1778
1784828935.6215,1764,1780
1784828935.6234,1758,1790
1784828935.6253,1756,1780
1784828935.6273,1744,1788
1784828935.6293,1737,1778
1784828935.6313,1745,1776
1784828935.6334,1764,1771
1784828935.6354,1768,1779
1784828935.6374,1755,1774
1784828935.6401,1769,1780
1784828935.6428,1773,1778
1784828935.6455,1766,1780
1784828935.6483,1749,1786
1784828935.6510,1757,1766
1784828935.6537,1763,1776
1784828935.6548,1754,1779
1784828935.6559,1733,1770
1784828935.6570,1740,1773
1784828935.6581,1757,1777
1784828935.6593,1770,1779
1784828935.6604,1761,1778
1784828935.6626,1748,1774
1784828935.6649,1749,1775
1784828935.6672,1746,1766
1784828935.6695,1755,1776
1784828935.6718,1743,1778
1784828935.6738,1756,1779
1784828935.6758,1762,1778
1784828935.6778,1747,1773
1784828935.6798,1737,1780
1784828935.6818,1741,1774
1784828935.6838,1767,1782
1784828935.6858,1770,1776
1784828935.6877,1745,1770
1784828935.6897,1750,1769
1784828935.6916,1755,1777
1784828935.6936,1751,1774
1784828935.6955,1753,1786
1784828935.6983,1752,1767
1784828935.7011,1771,1775
1784828935.7039,1763,1780
1784828935.7067,1773,1776
1784828935.7094,1757,1774
1784828935.7122,1753,1779
1784828935.7134,1747,1779
1784828935.7146,1744,1783
1784828935.7157,1766,1775
1784828935.7169,1776,1773
1784828935.7181,1750,1773
1784828935.7192,1739,1760
1784828935.7214,1764,1777
1784828935.7236,1765,1778
1784828935.7258,1750,1770
1784828935.7280,1766,1777
1784828935.7301,1747,1778
1784828935.7411,1739,1776
1784828935.7413,1770,1771
1784828935.7414,1768,1777
1784828935.7416,1767,1774
1784828935.7417,1758,1775
1784828935.7419,1744,1767
1784828935.7440,1728,1759
1784828935.7460,1733,1785
1784828935.7481,1731,1772
1784828935.7501,1735,1773
1784828935.7522,1746,1768
1784828935.7543,1747,1774
1784828935.7562,1748,1770
1784828935.7581,1773,1779
1784828935.7601,1780,1782
1784828935.7620,1780,1781
1784828935.7639,1776,1783
1784828935.7659,1771,1778
1784828935.7679,1741,1771
1784828935.7698,1743,1782
1784828935.7718,1742,1778
1784828935.7738,1770,1777
1784828935.7758,1781,1785
1784828935.7778,1759,1781
1784828935.7796,1747,1786
1784828935.7814,1755,1781
1784828935.7832,1745,1777
1784828935.7850,1761,1785
1784828935.7868,1767,1781
1784828935.7886,1771,1786
1784828935.7910,1776,1785
1784828935.7934,1722,1784
1784828935.7958,1699,1786
1784828935.7982,1721,1783
1784828935.8006,1752,1780
1784828935.8025,1748,1778
1784828935.8045,1752,1781
1784828935.8064,1753,1777
1784828935.8084,1770,1780
1784828935.8103,1759,1774
1784828935.8122,1763,1782
1784828935.8142,1759,1780
1784828935.8162,1775,1777
1784828935.8181,1774,1783
1784828935.8201,1771,1780
1784828935.8220,1760,1790
1784828935.8240,1758,1780
1784828935.8260,1755,1772
1784828935.8279,1731,1788
1784828935.8299,1735,1783
1784828935.8318,1740,1778
1784828935.8338,1760,1777
1784828935.8358,1767,1781
1784828935.8377,1760,1775
1784828935.8397,1766,1774
1784828935.8417,1775,1784
1784828935.8437,1756,1774
1784828935.8456,1747,1778
1784828935.8476,1763,1791
1784828935.8498,1750,1781
1784828935.8519,1770,1781
1784828935.8541,1757,1774
1784828935.8562,1741,1778
1784828935.8584,1740,1783
1784828935.8692,1744,1785
1784828935.8695,1752,1781
1784828935.8697,1766,1780
1784828935.8700,1774,1778
1784828935.8703,1767,1789
1784828935.8706,1761,1779
1784828935.8726,1755,1787
1784828935.8745,1750,1781
1784828935.8765,1764,1774
1784828935.8784,1733,1781
1784828935.8804,1719,1778
1784828935.8823,1728,1781
1784828935.8843,1736,1776
1784828935.8863,1741,1785
1784828935.8882,1745,1778
1784828935.8902,1751,1774
1784828935.8922,1770,1778
1784828935.8942,1776,1781
1784828935.8961,1762,1779
1784828935.8979,1758,1784
1784828935.8998,1773,1781
1784828935.9017,1771,1778
1784828935.9036,1773,1779
1784828935.9054,1755,1777
1784828935.9073,1751,1776
1784828935.9091,1748,1775
1784828935.9109,1722,1773
1784828935.9127,1745,1773
1784828935.9146,1769,1774
1784828935.9164,1762,1778
1784828935.9187,1747,1771
1784828935.9211,1738,1775
1784828935.9234,1753,1781
1784828935.9257,1764,1775
1784828935.9280,1779,1775
1784828935.9301,1750,1773
1784828935.9322,1755,1779
1784828935.9344,1770,1776
1784828935.9365,1768,1775
1784828935.9386,1773,1778
1784828935.9407,1768,1778
1784828935.9456,1768,1778
1784828935.9506,1754,1770
1784828935.9555,1734,1772
1784828935.9605,1726,1772
1784828935.9654,1745,1769
1784828935.9703,1744,1778
1784828935.9707,1725,1780
1784828935.9711,1735,1779
1784828935.9716,1745,1766
1784828935.9720,1741,1777
1784828935.9724,1755,1782
1784828935.9728,1761,1774
1784828935.9732,1771,1778
1784828935.9737,1780,1772
1784828935.9741,1766,1771
1784828935.9746,1753,1777
1784828935.9751,1767,1768
1784828935.9755,1766,1754
1784828935.9777,1759,1778
1784828935.9798,1777,1777
1784828935.9820,1744,1781
1784828935.9842,1744,1782
1784828935.9863,1735,1778
1784828935.9972,1736,1762
1784828935.9974,1746,1788
1784828935.9976,1760,1780
1784828935.9978,1744,1776
1784828935.9980,1750,1763
1784828935.9982,1756,1780
1784828936.0001,1768,1769
1784828936.0020,1773,1778
1784828936.0040,1776,1773
1784828936.0059,1778,1773
1784828936.0078,1761,1774
1784828936.0098,1738,1777
1784828936.0117,1726,1774
1784828936.0137,1749,1770
1784828936.0157,1763,1780
1784828936.0177,1775,1782
1784828936.0197,1762,1781
1784828936.0217,1754,1782
1784828936.0237,1757,1776
1784828936.0257,1761,1781
1784828936.0277,1765,1783
1784828936.0296,1751,1782
1784828936.0316,1735,1777
1784828936.0336,1741,1776
1784828936.0354,1748,1777
1784828936.0372,1740,1774
1784828936.0390,1730,1770
1784828936.0408,1737,1773
1784828936.0426,1748,1773
1784828936.0444,1770,1776
1784828936.0468,1761,1777
1784828936.0492,1772,1778
1784828936.0515,1770,1773
1784828936.0539,1762,1780
1784828936.0563,1766,1774
1784828936.0605,1774,1773
1784828936.0647,1777,1776
1784828936.0688,1752,1773
1784828936.0730,1741,1771
1784828936.0772,1746,1773
1784828936.0814,1735,1774
1784828936.0827,1752,1777
1784828936.0839,1744,1776
1784828936.0852,1761,1782
1784828936.0864,1762,1778
1784828936.0877,1775,1782
1784828936.0890,1764,1777
1784828936.0902,1772,1773
1784828936.0915,1774,1773
1784828936.0928,1767,1776
1784828936.0940,1762,1777
1784828936.0953,1785,1776
1784828936.0965,1775,1776
1784828936.0977,1746,1790
1784828936.0988,1717,1780
1784828936.0999,1699,1779
1784828936.1010,1726,1774
1784828936.1022,1743,1776
1784828936.1033,1725,1780
1784828936.1054,1748,1780
1784828936.1076,1747,1775
1784828936.1097,1746,1784
1784828936.1119,1752,1776
1784828936.1140,1761,1772
1784828936.1253,1772,1782
1784828936.1255,1773,1776
1784828936.1256,1768,1781
1784828936.1257,1762,1780
1784828936.1258,1753,1780
1784828936.1260,1764,1779
1784828936.1279,1772,1776
1784828936.1297,1757,1780
1784828936.1316,1747,1779
1784828936.1335,1749,1782
1784828936.1354,1755,1776
1784828936.1373,1754,1778
1784828936.1393,1752,1777
1784828936.1413,1757,1777
1784828936.1433,1754,1780
1784828936.1453,1768,1779
1784828936.1473,1780,1774
1784828936.1492,1786,1780
1784828936.1512,1784,1781
1784828936.1532,1744,1784
1784828936.1551,1729,1789
1784828936.1571,1741,1789
1784828936.1591,1741,1787
1784828936.1610,1747,1786
1784828936.1628,1756,1789
1784828936.1647,1748,1791
1784828936.1665,1743,1786
1784828936.1683,1752,1781
1784828936.1701,1742,1787
1784828936.1719,1757,1783
1784828936.1743,1772,1792
1784828936.1767,1758,1788
1784828936.1791,1752,1785
1784828936.1816,1751,1790
1784828936.1840,1738,1784
1784828936.1859,1739,1782
1784828936.1879,1736,1790
1784828936.1898,1742,1791
1784828936.1918,1749,1792
1784828936.1938,1745,1786
1784828936.1957,1766,1785
1784828936.1976,1750,1786
1784828936.1996,1768,1794
1784828936.2015,1765,1784
1784828936.2034,1769,1784
1784828936.2054,1770,1784
1784828936.2073,1779,1783
1784828936.2097,1767,1783
1784828936.2122,1760,1782
1784828936.2146,1735,1790
1784828936.2170,1734,1780
1784828936.2194,1753,1786
1784828936.2218,1744,1788
1784828936.2233,1756,1788
1784828936.2249,1763,1789
1784828936.2264,1744,1787
1784828936.2279,1748,1789
1784828936.2295,1753,1779
1784828936.2310,1768,1783
1784828936.2332,1774,1781
1784828936.2353,1754,1781
1784828936.2375,1732,1785
1784828936.2397,1736,1782
1784828936.2419,1749,1783
1784828936.2531,1761,1784
1784828936.2532,1775,1782
1784828936.2534,1774,1782
1784828936.2536,1778,1787
1784828936.2537,1769,1776
1784828936.2539,1736,1789
1784828936.2558,1720,1786
1784828936.2578,1734,1783
1784828936.2597,1734,1783
1784828936.2617,1743,1776
1784828936.2636,1749,1786
1784828936.2656,1769,1787
1784828936.2683,1782,1783
1784828936.2709,1778,1785
1784828936.2736,1778,1779
1784828936.2763,1777,1788
1784828936.2789,1770,1784
1784828936.2816,1767,1786
1784828936.2829,1737,1782
1784828936.2842,1736,1787
1784828936.2855,1747,1776
1784828936.2868,1742,1781
1784828936.2881,1718,1783
1784828936.2894,1732,1782
1784828936.2912,1744,1783
1784828936.2929,1760,1792
1784828936.2946,1757,1781
1784828936.2964,1751,1785
1784828936.2981,1752,1783
1784828936.2998,1763,1781
1784828936.3022,1753,1781
1784828936.3046,1762,1778
1784828936.3070,1772,1774
1784828936.3094,1762,1780
1784828936.3118,1750,1776
1784828936.3138,1746,1778
1784828936.3158,1747,1784
1784828936.3178,1741,1782
1784828936.3198,1743,1783
1784828936.3217,1737,1778
1784828936.3237,1761,1780
1784828936.3263,1764,1777
1784828936.3288,1768,1778
1784828936.3314,1774,1781
1784828936.3339,1777,1779
1784828936.3365,1761,1781
1784828936.3390,1749,1788
1784828936.3404,1748,1776
1784828936.3418,1743,1779
1784828936.3431,1767,1780
1784828936.3445,1754,1786
1784828936.3459,1745,1777
1784828936.3473,1737,1784
1784828936.3493,1738,1778
1784828936.3513,1745,1780
1784828936.3533,1741,1777
1784828936.3553,1747,1785
1784828936.3573,1746,1777
1784828936.3593,1744,1776
1784828936.3615,1744,1779
1784828936.3636,1750,1777
1784828936.3658,1759,1777
1784828936.3679,1757,1782
1784828936.3701,1746,1781
1784828936.3811,1760,1777
1784828936.3812,1754,1777
1784828936.3813,1762,1782
1784828936.3815,1765,1780
1784828936.3816,1760,1784
1784828936.3817,1762,1786
1784828936.3845,1772,1781
1784828936.3872,1757,1770
1784828936.3900,1744,1777
1784828936.3927,1736,1770
1784828936.3955,1754,1778
1784828936.3982,1763,1778
1784828936.3994,1771,1778
1784828936.4006,1767,1785
1784828936.4018,1771,1783
1784828936.4030,1785,1782
1784828936.4042,1760,1782
1784828936.4054,1756,1780
1784828936.4073,1782,1776
1784828936.4093,1755,1777
1784828936.4112,1750,1773
1784828936.4131,1732,1777
1784828936.4151,1734,1775
1784828936.4170,1734,1778
1784828936.4189,1733,1779
1784828936.4207,1768,1776
1784828936.4225,1733,1778
1784828936.4244,1751,1780
1784828936.4262,1753,1781
1784828936.4280,1742,1774
1784828936.4304,1759,1774
1784828936.4327,1753,1777
1784828936.4350,1755,1776
1784828936.4373,1746,1779
1784828936.4397,1753,1780
1784828936.4427,1750,1777
1784828936.4457,1767,1766
1784828936.4488,1761,1774
1784828936.4518,1740,1778
1784828936.4549,1744,1780
1784828936.4579,1782,1778
1784828936.4588,1782,1778
1784828936.4597,1775,1782
1784828936.4607,1766,1777
1784828936.4616,1766,1776
1784828936.4625,1763,1780
1784828936.4634,1776,1779
1784828936.4653,1744,1779
1784828936.4673,1712,1783
1784828936.4693,1719,1777
1784828936.4712,1736,1780
1784828936.4732,1755,1779
1784828936.4752,1768,1779
1784828936.4773,1770,1778
1784828936.4794,1766,1768
1784828936.4815,1776,1783
1784828936.4836,1769,1775
1784828936.4857,1746,1782
1784828936.4878,1738,1773
1784828936.4899,1743,1774
1784828936.4920,1759,1772
1784828936.4940,1755,1776
1784828936.4961,1757,1778
1784828936.4982,1751,1779
1784828936.5138,1759,1778
1784828936.5144,1764,1779
1784828936.5150,1758,1778
1784828936.5156,1745,1777
1784828936.5162,1759,1779
1784828936.5168,1753,1782
1784828936.5176,1750,1778
1784828936.5184,1757,1778
1784828936.5191,1764,1768
1784828936.5199,1771,1778
1784828936.5206,1742,1776
1784828936.5214,1737,1780
1784828936.5234,1731,1773
1784828936.5254,1760,1779
1784828936.5274,1756,1778
1784828936.5294,1742,1781
1784828936.5314,1756,1777
1784828936.5334,1765,1776
1784828936.5354,1760,1778
1784828936.5373,1751,1775
1784828936.5393,1746,1782
1784828936.5412,1765,1776
1784828936.5432,1770,1774
1784828936.5451,1758,1771
1784828936.5469,1763,1773
1784828936.5487,1774,1779
1784828936.5505,1774,1778
1784828936.5523,1749,1785
1784828936.5541,1744,1778
1784828936.5559,1755,1780
1784828936.5583,1757,1781
1784828936.5608,1744,1778
1784828936.5632,1742,1779
1784828936.5656,1750,1786
1784828936.5680,1763,1781
1784828936.5699,1757,1779
1784828936.5719,1745,1773
1784828936.5738,1753,1779
1784828936.5758,1765,1775
1784828936.5777,1759,1776
1784828936.5797,1755,1797
1784828936.5817,1763,1775
1784828936.5836,1765,1772
1784828936.5856,1745,1796
1784828936.5876,1744,1782
1784828936.5896,1761,1791
1784828936.5915,1773,1773
1784828936.5936,1772,1781
1784828936.5956,1756,1784
1784828936.5977,1750,1805
1784828936.5997,1762,1779
1784828936.6017,1751,1779
1784828936.6038,1759,1772
1784828936.6057,1746,1757
1784828936.6077,1752,1787
1784828936.6096,1729,1778
1784828936.6116,1723,1774
1784828936.6135,1737,1781
1784828936.6155,1743,1794
1784828936.6176,1751,1783
1784828936.6198,1745,1780
1784828936.6219,1731,1781
1784828936.6240,1747,1775
1784828936.6262,1757,1772
1784828936.6377,1771,1777
1784828936.6379,1753,1783
1784828936.6380,1768,1759
1784828936.6382,1777,1772
1784828936.6383,1752,1803
1784828936.6384,1747,1775
1784828936.6403,1751,1775
1784828936.6422,1772,1780
1784828936.6440,1766,1798
1784828936.6459,1765,1776
1784828936.6478,1752,1776
1784828936.6497,1757,1775
1784828936.6516,1763,1784
1784828936.6536,1759,1780
1784828936.6556,1751,1773
1784828936.6575,1752,1770
1784828936.6595,1759,1768
1784828936.6615,1752,1780
1784828936.6634,1745,1776
1784828936.6654,1751,1774
1784828936.6674,1758,1770
1784828936.6694,1753,1778
1784828936.6714,1738,1775
1784828936.6733,1747,1780
1784828936.6752,1757,1776
1784828936.6771,1759,1786
1784828936.6791,1747,1779
1784828936.6810,1751,1772
1784828936.6829,1755,1765
1784828936.6848,1756,1773
1784828936.6871,1741,1774
1784828936.6893,1758,1753
1784828936.6916,1769,1763
1784828936.6939,1769,1774
1784828936.6962,1753,1775
1784828936.6986,1745,1779
1784828936.7010,1752,1775
1784828936.7034,1745,1771
1784828936.7059,1752,1777
1784828936.7083,1752,1769
1784828936.7107,1758,1775
1784828936.7131,1755,1769
1784828936.7155,1738,1779
1784828936.7180,1748,1770
1784828936.7204,1763,1775
1784828936.7228,1766,1777
1784828936.7252,1751,1769
1784828936.7263,1742,1776
1784828936.7274,1747,1782
1784828936.7284,1764,1776
1784828936.7295,1773,1770
1784828936.7306,1777,1771
1784828936.7316,1763,1772
1784828936.7336,1753,1775
1784828936.7356,1753,1768
1784828936.7376,1744,1772
1784828936.7395,1736,1774
1784828936.7415,1740,1774
1784828936.7435,1737,1786
1784828936.7457,1750,1771
1784828936.7479,1748,1770
1784828936.7501,1764,1775
1784828936.7523,1777,1774
1784828936.7545,1755,1775
1784828936.7652,1749,1764
1784828936.7654,1734,1773
1784828936.7655,1752,1773
1784828936.7657,1766,1773
1784828936.7659,1753,1780
1784828936.7661,1761,1773
1784828936.7681,1760,1767
1784828936.7700,1740,1770
1784828936.7719,1739,1767
1784828936.7739,1746,1771
1784828936.7758,1757,1768
1784828936.7778,1747,1772
1784828936.7799,1752,1776
1784828936.7819,1760,1773
1784828936.7840,1763,1775
1784828936.7861,1755,1769
1784828936.7882,1754,1772
1784828936.7903,1754,1772
1784828936.7922,1755,1772
1784828936.7942,1757,1754
1784828936.7961,1752,1775
1784828936.7980,1752,1772
1784828936.7999,1756,1769
1784828936.8019,1754,1776
1784828936.8037,1747,1771
1784828936.8054,1742,1770
1784828936.8072,1755,1770
1784828936.8090,1775,1776
1784828936.8107,1752,1767
1784828936.8125,1744,1774
1784828936.8150,1748,1770
1784828936.8175,1758,1769
1784828936.8199,1732,1771
1784828936.8224,1752,1773
1784828936.8249,1761,1777
1784828936.8281,1779,1775
1784828936.8314,1748,1778
1784828936.8346,1744,1778
1784828936.8379,1754,1779
1784828936.8411,1769,1775
1784828936.8444,1767,1774
1784828936.8450,1749,1775
1784828936.8456,1746,1781
1784828936.8462,1741,1773
1784828936.8468,1741,1780
1784828936.8475,1738,1777
1784828936.8481,1744,1773
1784828936.8500,1757,1780
1784828936.8520,1761,1776
1784828936.8539,1755,1767
1784828936.8558,1759,1770
1784828936.8578,1767,1773
1784828936.8597,1753,1772
1784828936.8617,1741,1776
1784828936.8637,1768,1770
1784828936.8657,1776,1783
1784828936.8678,1759,1775
1784828936.8698,1727,1784
1784828936.8718,1722,1772
1784828936.8739,1737,1773
1784828936.8760,1758,1778
1784828936.8781,1754,1778
1784828936.8802,1752,1767
1784828936.8823,1762,1781
1784828936.8932,1762,1774
1784828936.8934,1754,1777
1784828936.8936,1753,1785
1784828936.8938,1762,1781
1784828936.8940,1752,1774
1784828936.8942,1748,1777
1784828936.8962,1752,1782
1784828936.8981,1756,1773
1784828936.9000,1764,1776
1784828936.9020,1770,1775
1784828936.9039,1768,1775
1784828936.9059,1759,1773
1784828936.9079,1760,1775
1784828936.9100,1758,1788
1784828936.9120,1753,1777
1784828936.9141,1744,1775
1784828936.9161,1761,1773
1784828936.9182,1762,1780
1784828936.9217,1757,1775
1784828936.9252,1768,1774
1784828936.9287,1750,1769
1784828936.9323,1751,1772
1784828936.9358,1764,1777
1784828936.9393,1752,1778
1784828936.9395,1757,1773
1784828936.9396,1755,1776
1784828936.9398,1745,1784
1784828936.9399,1730,1769
1784828936.9401,1751,1771
1784828936.9402,1747,1777
1784828936.9426,1757,1771
1784828936.9450,1760,1781
1784828936.9474,1753,1770
1784828936.9498,1759,1776
1784828936.9522,1764,1779
1784828936.9542,1747,1776
1784828936.9563,1751,1793
1784828936.9583,1767,1774
1784828936.9603,1766,1780
1784828936.9624,1761,1785
1784828936.9644,1777,1784
1784828936.9663,1746,1779
1784828936.9682,1718,1784
1784828936.9701,1774,1781
1784828936.9720,1742,1756
1784828936.9739,1722,1833
1784828936.9758,1760,1805
1784828936.9778,1706,1785
1784828936.9799,1781,1755
1784828936.9819,1830,1831
1784828936.9839,1815,1878
1784828936.9859,1838,1866
1784828936.9879,1834,1816
1784828936.9899,1968,1965
1784828936.9919,1877,1957
1784828936.9938,1843,1962
1784828936.9958,1831,1966
1784828936.9977,1810,1987
1784828936.9997,1752,1949
1784828937.0020,1926,1949
1784828937.0044,1814,1939
1784828937.0067,1601,1945
1784828937.0090,1488,1962
1784828937.0114,1414,1959
1784828937.0213,1647,1950
1784828937.0215,1517,1941
1784828937.0217,1570,1944
1784828937.0219,1840,1953
1784828937.0222,2194,2191
1784828937.0224,1936,2180
1784828937.0262,1861,2191
1784828937.0299,1696,2171
1784828937.0337,1671,2182
1784828937.0375,1821,2186
1784828937.0413,1801,2174
1784828937.0450,1678,2169
1784828937.0452,1650,2174
1784828937.0453,1526,2178
1784828937.0455,1308,2167
1784828937.0456,1529,2166
1784828937.0458,1520,2166
1784828937.0459,1592,2162
1784828937.0479,1549,2163
1784828937.0499,1571,2161
1784828937.0519,1740,2161
1784828937.0539,1687,2157
1784828937.0559,1848,2158
1784828937.0579,1821,2163
1784828937.0596,1867,2135
1784828937.0613,1740,2153
1784828937.0631,1660,2154
1784828937.0648,1788,2152
1784828937.0665,1858,2148
1784828937.0682,1784,2143
1784828937.0706,1980,2148
1784828937.0730,2136,2151
1784828937.0754,2060,2148
1784828937.0778,1969,2148
1784828937.0801,1898,2149
1784828937.0822,1841,2145
1784828937.0842,1912,2137
1784828937.0863,1657,2144
1784828937.0883,1479,2131
1784828937.0903,1527,2135
1784828937.0924,1535,2136
1784828937.0945,1654,2136
1784828937.0966,1654,2144
1784828937.0986,1914,2135
1784828937.1007,2020,2129
1784828937.1028,1886,2134
1784828937.1049,1913,2131
1784828937.1067,2190,2188
1784828937.1085,2023,2183
1784828937.1103,1774,2185
1784828937.1121,1870,2188
1784828937.1138,1483,2187
1784828937.1156,1405,2181
1784828937.1178,1805,2176
1784828937.1200,1892,2180
1784828937.1222,1894,2174
1784828937.1245,1399,2163
1784828937.1267,1413,2171
1784828937.1289,1759,2175
1784828937.1311,1830,2169
1784828937.1333,1808,2172
1784828937.1355,1447,2159
1784828937.1377,1772,2160
1784828937.1399,1836,2165
1784828937.1493,1704,2161
1784828937.1496,1837,2160
1784828937.1500,1742,2152
1784828937.1503,1528,2159
1784828937.1507,1435,2151
1784828937.1511,1301,2154
1784828937.1529,1444,2150
1784828937.1546,1565,2151
1784828937.1564,1693,2155
1784828937.1582,1902,2155
1784828937.1600,2147,2152
1784828937.1618,2136,2199
1784828937.1639,1595,2178
1784828937.1659,1591,2182
1784828937.1679,1734,2176
1784828937.1700,1662,2170
1784828937.1720,1746,2172
1784828937.1740,1681,2175
1784828937.1760,1710,2163
1784828937.1779,1746,2166
1784828937.1799,1959,2178
1784828937.1818,2161,2165
1784828937.1838,2101,2170
1784828937.1858,2015,2156
1784828937.1875,2027,2160
1784828937.1893,1906,2164
1784828937.1911,2301,2361
1784828937.1928,2605,2625
1784828937.1946,2237,2620
1784828937.1964,1462,2615
1784828937.1988,1524,2605
1784828937.2012,1993,2596
1784828937.2036,1621,2607
1784828937.2060,1507,2599
1784828937.2084,1177,2594
1784828937.2104,1198,2593
1784828937.2124,1413,2585
1784828937.2144,1359,2571
1784828937.2164,1387,2564
1784828937.2183,1335,2567
1784828937.2203,1351,2563
1784828937.2244,1646,2558
1784828937.2284,1708,2559
1784828937.2325,1713,2558
1784828937.2366,1639,2565
1784828937.2406,1914,2553
1784828937.2447,1670,2542
1784828937.2465,1768,2550
1784828937.2484,1807,2543
1784828937.2502,1983,2541
1784828937.2520,2117,2542
1784828937.2538,2010,2536
1784828937.2557,1982,2532
1784828937.2560,1900,2528
1784828937.2563,1764,2525
1784828937.2566,1810,2529
1784828937.2570,1906,2530
1784828937.2573,1838,2516
1784828937.2576,1820,2515
1784828937.2594,1798,2513
1784828937.2612,1842,2507
1784828937.2630,1846,2513
1784828937.2648,1915,2508
1784828937.2665,1831,2511
1784828937.2772,1851,2497
1784828937.2774,1809,2494
1784828937.2776,1933,2505
1784828937.2778,2046,2491
1784828937.2779,2206,2489
1784828937.2781,1824,2488
1784828937.2801,1694,2479
1784828937.2820,1848,2483
1784828937.2839,1739,2480
1784828937.2858,1571,2477
1784828937.2877,1414,2472
1784828937.2896,1399,2467
1784828937.2916,1397,2471
1784828937.2936,1659,2457
1784828937.2957,1673,2470
1784828937.2977,1612,2461
1784828937.2997,1582,2460
1784828937.3017,1518,2460
1784828937.3038,1438,2458
1784828937.3058,1502,2454
1784828937.3078,1681,2446
1784828937.3098,1787,2447
1784828937.3118,1776,2460
1784828937.3138,1729,2437
1784828937.3155,1700,2444
1784828937.3172,1721,2435
1784828937.3189,1802,2439
1784828937.3207,1863,2431
1784828937.3224,1921,2435
1784828937.3241,1834,2428
1784828937.3264,1904,2423
1784828937.3287,1865,2430
1784828937.3311,1889,2424
1784828937.3334,1692,2419
1784828937.3358,1776,2424
1784828937.3378,1810,2416
1784828937.3398,1885,2420
1784828937.3418,1873,2408
1784828937.3438,1831,2405
1784828937.3458,1797,2402
1784828937.3478,1812,2400
1784828937.3499,1808,2399
1784828937.3520,1790,2400
1784828937.3542,1774,2394
1784828937.3563,1777,2391
1784828937.3584,1784,2390
1784828937.3605,1833,2381
1784828937.3623,1830,2381
1784828937.3640,1873,2384
1784828937.3658,1858,2386
1784828937.3675,1846,2373
1784828937.3693,1772,2372
1784828937.3710,1779,2382
1784828937.3730,1723,2378
1784828937.3750,1707,2366
1784828937.3770,1595,2368
1784828937.3790,1589,2364
1784828937.3810,1656,2359
1784828937.3830,1609,2363
1784828937.3852,1605,2356
1784828937.3873,1651,2335
1784828937.3895,1634,2352
1784828937.3917,1660,2353
1784828937.3938,1680,2356
1784828937.4050,1756,2349
1784828937.4051,1794,2348
1784828937.4052,1822,2351
1784828937.4053,1770,2351
1784828937.4054,1746,2336
1784828937.4055,1708,2345
1784828937.4084,1739,2342
1784828937.4112,1761,2334
1784828937.4140,1782,2335
1784828937.4169,1793,2330
1784828937.4197,1790,2335
1784828937.4226,1779,2330
1784828937.4237,1785,2323
1784828937.4248,1777,2326
1784828937.4259,1805,2325
1784828937.4270,1793,2319
1784828937.4281,1796,2315
1784828937.4292,1779,2324
1784828937.4312,1776,2316
1784828937.4331,1784,2308
1784828937.4351,1774,2314
1784828937.4371,1764,2312
1784828937.4390,1767,2309
1784828937.4410,1775,2308
1784828937.4428,1766,2302
1784828937.4446,1754,2302
1784828937.4464,1749,2299
1784828937.4483,1752,2301
1784828937.4501,1756,2306
1784828937.4519,1744,2292
1784828937.4543,1754,2283
1784828937.4567,1749,2299
1784828937.4591,1750,2281
1784828937.4615,1750,2295
1784828937.4639,1741,2284
1784828937.4659,1744,2279
1784828937.4678,1763,2279
1784828937.4698,1739,2283
1784828937.4717,1746,2275
1784828937.4737,1744,2270
1784828937.4756,1755,2276
1784828937.4776,1748,2269
1784828937.4795,1750,2277
1784828937.4814,1746,2277
1784828937.4834,1752,2261
1784828937.4853,1767,2262
1784828937.4873,1743,2259
1784828937.4892,1744,2264
1784828937.4912,1758,2265
1784828937.4931,1744,2250
1784828937.4951,1742,2255
1784828937.4970,1738,2251
1784828937.4990,1746,2256
1784828937.5010,1758,2239
1784828937.5030,1745,2239
1784828937.5050,1743,2243
1784828937.5070,1759,2253
1784828937.5090,1772,2244
1784828937.5110,1781,2241
1784828937.5132,1764,2250
1784828937.5153,1763,2243
1784828937.5175,1759,2238
1784828937.5197,1742,2237
1784828937.5218,1733,2230
1784828937.5331,1735,2232
1784828937.5332,1746,2231
1784828937.5333,1745,2229
1784828937.5334,1759,2230
1784828937.5335,1736,2231
1784828937.5336,1754,2221
1784828937.5361,1755,2223
1784828937.5387,1764,2220
1784828937.5412,1759,2214
1784828937.5438,1761,2221
1784828937.5464,1760,2206
1784828937.5489,1754,2225
1784828937.5503,1754,2228
1784828937.5518,1763,2221
1784828937.5532,1766,2210
1784828937.5546,1755,2218
1784828937.5560,1764,2209
1784828937.5574,1781,2207
1784828937.5594,1772,2202
1784828937.5614,1760,2205
1784828937.5634,1751,2158
1784828937.5653,1757,2204
1784828937.5673,1772,2189
1784828937.5693,1755,2198
1784828937.5711,1737,2198
1784828937.5728,1746,2191
1784828937.5746,1756,2195
1784828937.5764,1752,2188
1784828937.5781,1763,2186
1784828937.5799,1754,2177
1784828937.5823,1751,2180
1784828937.5846,1753,2183
1784828937.5870,1751,2196
1784828937.5894,1759,2201
1784828937.5918,1772,2161
1784828937.5946,1751,2184
1784828937.5975,1733,2178
1784828937.6004,1737,2173
1784828937.6032,1743,2175
1784828937.6061,1740,2174
1784828937.6090,1744,2174
1784828937.6101,1748,2173
1784828937.6111,1759,2151
1784828937.6122,1752,2166
1784828937.6133,1737,2162
1784828937.6143,1727,2173
1784828937.6154,1742,2168
1784828937.6175,1755,2165
1784828937.6197,1755,2195
1784828937.6218,1750,2161
1784828937.6240,1759,2164
1784828937.6261,1763,2158
1784828937.6283,1759,2155
1784828937.6301,1746,2151
1784828937.6319,1762,2156
1784828937.6338,1767,2150
1784828937.6356,1777,2148
1784828937.6374,1794,2156
1784828937.6393,1787,2129
1784828937.6414,1810,2148
1784828937.6436,1774,2144
1784828937.6458,1756,2144
1784828937.6479,1735,2144
1784828937.6501,1702,2169
1784828937.6613,1732,2141
1784828937.6615,1734,2141
1784828937.6617,1745,2170
1784828937.6619,1750,2140
1784828937.6621,1750,2128
1784828937.6623,1746,2144
1784828937.6642,1732,2134
1784828937.6661,1765,2129
1784828937.6680,1769,2132
1784828937.6699,1786,2119
1784828937.6719,1851,2127
1784828937.6738,1801,2096
1784828937.6757,1795,2123
1784828937.6777,1732,2131
1784828937.6796,1684,2125
1784828937.6816,1680,2131
1784828937.6835,1701,2134
1784828937.6855,1724,2119
1784828937.6874,1736,2120
1784828937.6894,1763,2119
1784828937.6914,1776,2114
1784828937.6933,1767,2121
1784828937.6953,1736,2110
1784828937.6973,1743,2113
1784828937.6991,1739,2110
1784828937.7010,1753,2114
1784828937.7029,1765,2083
1784828937.7048,1764,2127
1784828937.7066,1776,2105
1784828937.7085,1774,2101
1784828937.7107,1771,2107
1784828937.7130,1790,2096
1784828937.7152,1789,2083
1784828937.7174,1784,2095
1784828937.7197,1776,2103
1784828937.7224,1755,2098
1784828937.7252,1736,2095
1784828937.7279,1714,2099
1784828937.7307,1712,2094
1784828937.7335,1724,2091
1784828937.7362,1741,2092
1784828937.7374,1760,2094
1784828937.7386,1755,2093
1784828937.7398,1753,2094
1784828937.7410,1751,2087
1784828937.7422,1748,2085
1784828937.7434,1757,2086
1784828937.7454,1750,2084
1784828937.7473,1763,2089
1784828937.7493,1762,2079
1784828937.7513,1769,2081
1784828937.7532,1771,2082
1784828937.7552,1769,2081
1784828937.7572,1782,2083
1784828937.7592,1780,2078
1784828937.7613,1724,2075
1784828937.7633,1748,2071
1784828937.7654,1743,2081
1784828937.7674,1737,2073
1784828937.7696,1739,2078
1784828937.7719,1730,2074
1784828937.7741,1750,2071
1784828937.7764,1757,2076
1784828937.7786,1742,2075
1784828937.7893,1731,2067
1784828937.7895,1730,2064
1784828937.7897,1747,2062
1784828937.7899,1766,2064
1784828937.7900,1767,2063
1784828937.7902,1765,2061
1784828937.7922,1768,2059
1784828937.7941,1766,2061
1784828937.7960,1782,2054
1784828937.7980,1765,2063
1784828937.7999,1762,2054
1784828937.8018,1759,2053
1784828937.8040,1755,2056
1784828937.8061,1772,2045
1784828937.8082,1747,2059
1784828937.8104,1756,2047
1784828937.8125,1763,2031
1784828937.8146,1748,2044
1784828937.8164,1746,2043
1784828937.8182,1741,2052
1784828937.8200,1745,2037
1784828937.8217,1745,2038
1784828937.8235,1733,2036
1784828937.8253,1762,2047
1784828937.8271,1785,2038
1784828937.8289,1814,2045
1784828937.8307,1783,2031
1784828937.8325,1748,2040
1784828937.8343,1735,2033
1784828937.8361,1737,2033
1784828937.8387,1728,2033
1784828937.8413,1732,2033
1784828937.8439,1734,2024
1784828937.8465,1714,2025
1784828937.8491,1727,2033
1784828937.8510,1742,2028
1784828937.8529,1744,2023
1784828937.8548,1753,2030
1784828937.8567,1773,2026
1784828937.8586,1805,2020
1784828937.8605,1800,2035
1784828937.8624,1788,2020
1784828937.8643,1778,2026
1784828937.8662,1755,2021
1784828937.8681,1747,2026
1784828937.8699,1739,2012
1784828937.8718,1727,2023
1784828937.8741,1738,2015
1784828937.8763,1735,2020
1784828937.8786,1729,2019
1784828937.8808,1727,2009
1784828937.8831,1748,1999
1784828937.8853,1759,2013
1784828937.8876,1761,2013
1784828937.8898,1767,2013
1784828937.8921,1772,2009
1784828937.8943,1777,2012
1784828937.8966,1774,2006
1784828937.8988,1755,2005
1784828937.9003,1761,2008
1784828937.9018,1767,2002
1784828937.9033,1759,2006
1784828937.9048,1764,2007
1784828937.9063,1748,1998
1784828937.9172,1782,2004
1784828937.9174,1804,1999
1784828937.9176,1807,2003
1784828937.9178,1761,2000
1784828937.9180,1733,1988
1784828937.9182,1722,1991
1784828937.9201,1720,1991
1784828937.9220,1739,2001
1784828937.9240,1728,2000
1784828937.9259,1751,1998
1784828937.9278,1745,1997
1784828937.9297,1748,1996
1784828937.9318,1810,1992
1784828937.9338,1797,1985
1784828937.9358,1743,1995
1784828937.9379,1736,1987
1784828937.9399,1751,1992
1784828937.9419,1757,1994
1784828937.9439,1766,1994
1784828937.9459,1787,1980
1784828937.9478,1779,1990
1784828937.9498,1765,1987
1784828937.9518,1743,1986
1784828937.9538,1713,1984
1784828937.9557,1712,1983
1784828937.9576,1697,1984
1784828937.9594,1727,1982
1784828937.9613,1724,1979
1784828937.9632,1743,1985
1784828937.9651,1764,1983
1784828937.9676,1763,1974
1784828937.9701,1771,1981
1784828937.9725,1788,1972
1784828937.9750,1791,1986
1784828937.9775,1764,1974
1784828937.9799,1760,1975
1784828937.9824,1751,1975
1784828937.9848,1751,1973
1784828937.9873,1761,1980
1784828937.9898,1767,1981
1784828937.9922,1755,1971
1784828937.9936,1760,1970
1784828937.9950,1767,1972
1784828937.9964,1766,1969
1784828937.9977,1774,1962
1784828937.9991,1772,1968
1784828938.0005,1742,1967
1784828938.0023,1754,1963
1784828938.0042,1765,1945
1784828938.0060,1774,1970
1784828938.0079,1768,1958
1784828938.0097,1760,1963
1784828938.0115,1754,1964
1784828938.0135,1733,1957
1784828938.0155,1784,1966
1784828938.0175,1797,1963
1784828938.0195,1769,1961
1784828938.0215,1764,1958
1784828938.0235,1768,1962
1784828938.0257,1743,1959
1784828938.0279,1710,1956
1784828938.0301,1685,1958
1784828938.0324,1710,1963
1784828938.0346,1728,1960
1784828938.0457,1743,1959
1784828938.0459,1778,1955
1784828938.0461,1778,1960
1784828938.0463,1774,1961
1784828938.0464,1763,1955
1784828938.0466,1753,1950
1784828938.0485,1733,1958
1784828938.0504,1740,1961
1784828938.0524,1742,1950
1784828938.0543,1727,1942
1784828938.0562,1734,1946
1784828938.0581,1751,1950
1784828938.0622,1753,1938
1784828938.0664,1778,1945
1784828938.0706,1775,1948
1784828938.0748,1758,1946
1784828938.0790,1741,1941
1784828938.0831,1749,1936
1784828938.0833,1761,1951
1784828938.0835,1817,1946
1784828938.0836,1804,1938
1784828938.0838,1775,1939
1784828938.0839,1774,1936
1784828938.0841,1733,1936
1784828938.0854,1750,1936
1784828938.0868,1719,1933
1784828938.0882,1740,1938
1784828938.0895,1745,1939
1784828938.0909,1750,1941
1784828938.0922,1743,1947
1784828938.0947,1726,1940
1784828938.0972,1742,1934
1784828938.0997,1750,1937
1784828938.1021,1739,1940
1784828938.1046,1755,1941
1784828938.1065,1793,1933
1784828938.1084,1798,1934
1784828938.1103,1793,1937
1784828938.1122,1789,1935
1784828938.1141,1789,1928
1784828938.1160,1763,1930
1784828938.1181,1777,1934
1784828938.1202,1762,1924
1784828938.1223,1733,1929
1784828938.1244,1712,1930
1784828938.1265,1720,1926
1784828938.1286,1705,1928
1784828938.1304,1732,1926
1784828938.1322,1691,1922
1784828938.1340,1750,1926
1784828938.1358,1721,1923
1784828938.1376,1744,1919
1784828938.1394,1780,1932
1784828938.1416,1833,1926
1784828938.1437,1829,1919
1784828938.1458,1833,1917
1784828938.1479,1804,1923
1784828938.1501,1789,1925
1784828938.1522,1786,1915
1784828938.1570,1782,1921
1784828938.1619,1747,1924
1784828938.1667,1724,1918
1784828938.1716,1761,1920
1784828938.1764,1846,1914
1784828938.1766,1863,1906
1784828938.1767,1830,1941
1784828938.1769,1671,1941
1784828938.1770,1630,1941
1784828938.1772,1602,1933
1784828938.1774,1632,1928
1784828938.1787,1650,1932
1784828938.1801,1824,1939
1784828938.1815,1752,1933
1784828938.1829,1876,1928
1784828938.1843,1930,1954
1784828938.1857,1816,1947
1784828938.1877,1599,1952
1784828938.1897,1640,1951
1784828938.1917,1696,1949
1784828938.1937,1779,1939
1784828938.1957,1961,1969
1784828938.1977,1755,1965
1784828938.1998,1645,1966
1784828938.2018,1701,1950
1784828938.2038,2007,2011
1784828938.2059,1496,2012
1784828938.2079,1785,2006
1784828938.2099,2353,2372
1784828938.2117,1883,2368
1784828938.2134,1776,2362
1784828938.2151,1703,2359
1784828938.2168,1751,2339
1784828938.2186,1888,2356
1784828938.2203,1545,2352
1784828938.2226,1404,2350
1784828938.2250,1622,2353
1784828938.2273,1810,2348
1784828938.2297,1556,2343
1784828938.2320,1263,2344
1784828938.2340,1588,2337
1784828938.2360,1833,2339
1784828938.2381,1677,2332
1784828938.2401,2043,2331
1784828938.2421,1750,2329
1784828938.2441,2686,2701
1784828938.2465,1999,2675
1784828938.2490,1921,2674
1784828938.2514,1410,2668
1784828938.2538,1775,2671
1784828938.2562,1697,2641
1784828938.2586,1219,2651
1784828938.2617,1074,2650
1784828938.2649,857,2653
1784828938.2680,1159,2649
1784828938.2712,1112,2649
1784828938.2744,1500,2635
1784828938.2775,1794,2635
1784828938.2778,1928,2632
1784828938.2782,1997,2630
1784828938.2785,1963,2624
1784828938.2788,1917,2619
1784828938.2792,1903,2624
1784828938.2795,2076,2609
1784828938.2813,2147,2615
1784828938.2831,2126,2608
1784828938.2848,1985,2594
1784828938.2866,1858,2607
1784828938.2884,1972,2582
1784828938.2902,1787,2600
1784828938.2926,1901,2585
1784828938.2950,1978,2590
1784828938.2974,2468,2586
1784828938.2998,2219,2592
1784828938.3022,1694,2577
1784828938.3043,1738,2570
1784828938.3064,1602,2559
1784828938.3085,1287,2565
1784828938.3105,1453,2558
1784828938.3126,1493,2557
1784828938.3147,1557,2558
1784828938.3166,1668,2553
1784828938.3185,1879,2554
1784828938.3204,1965,2561
1784828938.3223,1767,2545
1784828938.3242,1378,2545
1784828938.3261,1580,2541
1784828938.3279,1785,2542
1784828938.3298,1735,2533
1784828938.3317,1627,2534
1784828938.3336,1614,2525
1784828938.3355,1712,2532
1784828938.3374,1800,2523
1784828938.3394,1891,2524
1784828938.3414,1868,2498
1784828938.3434,2081,2514
1784828938.3454,1704,2511
1784828938.3474,1840,2510
1784828938.3495,1755,2509
1784828938.3517,1975,2511
1784828938.3538,1769,2506
1784828938.3560,1822,2493
1784828938.3582,1768,2498
1784828938.3604,1778,2496
1784828938.3787,1626,2492
1784828938.3789,1801,2488
1784828938.3790,1651,2480
1784828938.3792,1413,2490
1784828938.3794,1330,2490
1784828938.3796,1426,2476
1784828938.3803,1300,2480
1784828938.3810,1669,2478
1784828938.3817,1620,2474
1784828938.3823,1663,2469
1784828938.3830,1966,2465
1784828938.3837,1961,2458
1784828938.3857,1759,2459
1784828938.3877,1908,2466
1784828938.3897,2075,2455
1784828938.3917,2051,2458
1784828938.3937,1972,2454
1784828938.3957,1833,2449
1784828938.3977,1900,2450
1784828938.3996,1990,2440
1784828938.4016,1958,2442
1784828938.4036,2118,2438
1784828938.4055,2385,2424
1784828938.4075,2162,2439
1784828938.4094,1929,2437
1784828938.4112,1750,2434
1784828938.4131,1336,2423
1784828938.4150,1538,2426
1784828938.4169,1819,2422
1784828938.4188,1929,2417
1784828938.4211,1665,2425
1784828938.4234,1265,2417
1784828938.4258,1193,2416
1784828938.4281,1054,2412
1784828938.4304,1187,2408
1784828938.4325,1312,2408
1784828938.4345,1495,2444
1784828938.4366,1543,2401
1784828938.4386,1788,2397
1784828938.4407,2027,2399
1784828938.4427,1985,2396
1784828938.4447,1868,2397
1784828938.4466,1789,2385
1784828938.4485,1904,2383
1784828938.4504,1900,2395
1784828938.4523,1826,2382
1784828938.4542,1812,2378
1784828938.4578,1777,2383
1784828938.4614,1808,2380
1784828938.4649,1892,2374
1784828938.4685,1834,2391
1784828938.4721,1874,2374
1784828938.4757,1838,2378
1784828938.4760,1754,2372
1784828938.4763,1799,2370
1784828938.4766,1838,2368
1784828938.4769,1806,2367
1784828938.4772,1781,2363
1784828938.4774,1802,2360
1784828938.4796,1804,2358
1784828938.4818,1807,2357
1784828938.4840,1786,2361
1784828938.4861,1705,2350
1784828938.4883,1729,2348
1784828938.4993,1765,2350
1784828938.4995,1705,2355
1784828938.4996,1760,2348
1784828938.4998,1773,2345
1784828938.5000,1736,2336
1784828938.5002,1750,2341
1784828938.5022,1770,2332
1784828938.5042,1809,2331
1784828938.5062,1823,2340
1784828938.5082,1818,2328
1784828938.5102,1784,2328
1784828938.5122,1743,2331
1784828938.5143,1645,2325
1784828938.5163,1644,2273
1784828938.5183,1707,2322
1784828938.5204,1851,2324
1784828938.5224,1894,2316
1784828938.5244,1790,2322
1784828938.5264,1680,2315
1784828938.5283,1625,2305
1784828938.5303,1536,2307
1784828938.5322,1649,2318
1784828938.5342,1742,2303
1784828938.5361,1721,2310
1784828938.5379,1680,2305
1784828938.5396,1716,2297
1784828938.5414,1732,2295
1784828938.5432,1695,2297
1784828938.5449,1743,2301
1784828938.5467,1669,2268
1784828938.5511,1676,2293
1784828938.5555,1725,2292
1784828938.5599,1757,2297
1784828938.5643,1761,2279
1784828938.5687,1780,2281
1784828938.5688,1790,2250
1784828938.5690,1794,2273
1784828938.5692,1794,2268
1784828938.5694,1808,2277
1784828938.5696,1807,2277
1784828938.5697,1807,2281
1784828938.5718,1805,2247
1784828938.5738,1803,2270
1784828938.5759,1796,2264
1784828938.5779,1785,2251
1784828938.5799,1782,2267
1784828938.5820,1777,2267
1784828938.5839,1778,2278
1784828938.5858,1774,2256
1784828938.5878,1760,2245
1784828938.5897,1766,2255
1784828938.5916,1767,2247
1784828938.5936,1755,2249
1784828938.5956,1744,2229
1784828938.5976,1751,2249
1784828938.5997,1752,2248
1784828938.6017,1755,2245
1784828938.6037,1757,2237
1784828938.6058,1745,2242
1784828938.6080,1744,2238
1784828938.6102,1759,2219
1784828938.6124,1754,2204
1784828938.6146,1736,2237
1784828938.6168,1730,2236
1784828938.6274,1744,2228
1784828938.6276,1739,2233
1784828938.6279,1739,2226
1784828938.6282,1746,2227
1784828938.6284,1758,2216
1784828938.6287,1753,2226
1784828938.6306,1750,2221
1784828938.6324,1741,2217
1784828938.6343,1756,2218
1784828938.6362,1755,2219
1784828938.6381,1740,2211
1784828938.6399,1756,2225
1784828938.6420,1749,2216
1784828938.6441,1770,2210
1784828938.6462,1757,2212
1784828938.6483,1755,2210
1784828938.6504,1759,2206
1784828938.6525,1766,2204
1784828938.6546,1762,2210
1784828938.6567,1746,2201
1784828938.6588,1748,2199
1784828938.6609,1749,2197
1784828938.6630,1744,2199
1784828938.6651,1743,2192
1784828938.6666,1770,2194
1784828938.6682,1785,2193
1784828938.6697,1764,2192
1784828938.6712,1719,2193
1784828938.6727,1705,2188
1784828938.6743,1724,2186
1784828938.6766,1722,2185
1784828938.6790,1732,2182
1784828938.6814,1738,2179
1784828938.6837,1746,2189
1784828938.6861,1753,2185
1784828938.6881,1785,2172
1784828938.6901,1786,2180
1784828938.6921,1800,2175
1784828938.6940,1802,2171
1784828938.6960,1751,2169
1784828938.6980,1743,2168
1784828938.7000,1775,2171
1784828938.7019,1793,2160
1784828938.7039,1750,2170
1784828938.7058,1722,2168
1784828938.7078,1699,2165
1784828938.7098,1696,2155
1784828938.7117,1695,2171
1784828938.7136,1720,2158
1784828938.7155,1737,2154
1784828938.7175,1754,2160
1784828938.7194,1753,2153
1784828938.7213,1759,2151
1784828938.7234,1772,2155
1784828938.7255,1816,2154
1784828938.7275,1806,2154
1784828938.7296,1778,2150
1784828938.7317,1745,2143
1784828938.7338,1747,2152
1784828938.7371,1774,2146
1784828938.7404,1781,2145
1784828938.7436,1754,2154
1784828938.7469,1741,2147
1784828938.7502,1743,2137
1784828938.7551,1727,2143
1784828938.7552,1742,2139
1784828938.7553,1748,2133
1784828938.7555,1759,2137
1784828938.7556,1755,2134
1784828938.7558,1766,2124
1784828938.7577,1756,2131
1784828938.7597,1784,2128
1784828938.7617,1777,2125
1784828938.7636,1765,2131
1784828938.7656,1774,2127
1784828938.7676,1783,2125
1784828938.7696,1765,2134
1784828938.7716,1726,2126
1784828938.7736,1710,2116
1784828938.7757,1710,2120
1784828938.7777,1708,2125
1784828938.7797,1751,2127
1784828938.7817,1746,2116
1784828938.7836,1749,2118
1784828938.7855,1746,2114
1784828938.7875,1755,2115
1784828938.7894,1743,2109
1784828938.7913,1748,2110
1784828938.7931,1743,2113
1784828938.7950,1757,2116
1784828938.7968,1764,2108
1784828938.7986,1788,2108
1784828938.8004,1827,2106
1784828938.8022,1779,2107
1784828938.8046,1756,2114
1784828938.8070,1722,2101
1784828938.8094,1731,2110
1784828938.8118,1727,2102
1784828938.8142,1734,2092
1784828938.8167,1751,2096
1784828938.8193,1760,2101
1784828938.8218,1762,2088
1784828938.8243,1777,2094
1784828938.8268,1804,2095
1784828938.8293,1800,2091
1784828938.8308,1777,2097
1784828938.8322,1740,2105
1784828938.8336,1730,2086
1784828938.8350,1729,2085
1784828938.8364,1699,2087
1784828938.8379,1710,2086
1784828938.8397,1780,2105
1784828938.8416,1779,2083
1784828938.8435,1754,2080
1784828938.8454,1738,2078
1784828938.8473,1749,2072
1784828938.8492,1757,2070
1784828938.8513,1734,2076
1784828938.8534,1747,2080
1784828938.8554,1750,2075
1784828938.8575,1785,2091
1784828938.8596,1822,2089
1784828938.8617,1830,2092
1784828938.8638,1800,2071
1784828938.8659,1762,2069
1784828938.8680,1752,2070
1784828938.8701,1713,2062
1784828938.8722,1703,2063
1784828938.8831,1746,2068
1784828938.8833,1780,2067
1784828938.8834,1766,2068
1784828938.8836,1739,2062
1784828938.8838,1718,2063
1784828938.8840,1743,2059
1784828938.8889,1732,2060
1784828938.8938,1730,2062
1784828938.8986,1729,2062
1784828938.9035,1714,2061
1784828938.9083,1758,2056
1784828938.9132,1761,2036
1784828938.9134,1785,2040
1784828938.9135,1800,2051
1784828938.9137,1756,2053
1784828938.9139,1745,2050
1784828938.9140,1756,2036
1784828938.9142,1747,2041
1784828938.9150,1757,2037
1784828938.9159,1724,2055
1784828938.9168,1702,2036
1784828938.9176,1734,2043
1784828938.9185,1747,2040
1784828938.9193,1764,2040
1784828938.9211,1771,2035
1784828938.9230,1787,2038
1784828938.9248,1780,2048
1784828938.9266,1781,2031
1784828938.9284,1767,2037
1784828938.9303,1759,2038
1784828938.9327,1749,2052
1784828938.9352,1758,2027
1784828938.9377,1779,2034
1784828938.9402,1752,2033
1784828938.9427,1753,2028
1784828938.9446,1755,2018
1784828938.9465,1745,2032
1784828938.9483,1742,2024
1784828938.9502,1751,2025
1784828938.9521,1740,2024
1784828938.9539,1742,2002
1784828938.9559,1735,1998
1784828938.9579,1734,2030
1784828938.9598,1794,2021
1784828938.9618,1806,2018
1784828938.9637,1765,2013
1784828938.9657,1777,2019
1784828938.9677,1766,2020
1784828938.9696,1745,2022
1784828938.9715,1709,2017
1784828938.9735,1697,2013
1784828938.9754,1708,2012
1784828938.9774,1728,2018
1784828938.9794,1735,1994
1784828938.9814,1770,2017
1784828938.9835,1783,1971
1784828938.9855,1758,2009
1784828938.9875,1745,2003
1784828938.9895,1789,2008
1784828938.9917,1827,2007
1784828938.9938,1798,2010
1784828938.9960,1765,2002
1784828938.9982,1739,2005
1784828939.0003,1738,2049
1784828939.0185,1709,2003
1784828939.0206,1693,2002
1784828939.0226,1727,2005
1784828939.0247,1743,1997
1784828939.0267,1748,1993
1784828939.0287,1753,1988
1784828939.0289,1741,1994
1784828939.0290,1761,1996
1784828939.0292,1769,1996
1784828939.0293,1767,1999
1784828939.0295,1771,1996
1784828939.0296,1771,2001
1784828939.0306,1813,1996
1784828939.0317,1802,2001
1784828939.0327,1772,1994
1784828939.0337,1742,1986
1784828939.0348,1746,1985
1784828939.0358,1760,1989
1784828939.0379,1764,1986
1784828939.0401,1754,1984
1784828939.0422,1730,1991
1784828939.0443,1723,1987
1784828939.0465,1729,1983
1784828939.0486,1743,1980
1784828939.0502,1755,1987
1784828939.0518,1748,1989
1784828939.0534,1736,1977
1784828939.0550,1762,1979
1784828939.0566,1778,1982
1784828939.0582,1778,1979
1784828939.0606,1773,1979
1784828939.0630,1757,1971
1784828939.0653,1758,1982
1784828939.0677,1775,1975
1784828939.0700,1747,1972
1784828939.0721,1737,1963
1784828939.0741,1729,1972
1784828939.0761,1718,1975
1784828939.0782,1719,1973
1784828939.0802,1729,1977
1784828939.0822,1738,1971
1784828939.0842,1753,1975
1784828939.0861,1751,1970
1784828939.0880,1783,1962
1784828939.0899,1765,1964
1784828939.0918,1772,1965
1784828939.0937,1777,1967
1784828939.0957,1767,1968
1784828939.0976,1766,1964
1784828939.0996,1763,1964
1784828939.1015,1810,1966
1784828939.1035,1841,1965
1784828939.1055,1795,1961
1784828939.1095,1714,1963
1784828939.1136,1703,1953
1784828939.1176,1714,1961
1784828939.1217,1695,1963
1784828939.1257,1710,1959
1784828939.1297,1735,1963
1784828939.1315,1733,1955
1784828939.1332,1756,1955
1784828939.1349,1779,1961
1784828939.1366,1770,1955
1784828939.1383,1769,1958
1784828939.1392,1786,1959
1784828939.1394,1778,1949
1784828939.1396,1776,1959
1784828939.1398,1756,1956
1784828939.1400,1783,1952
1784828939.1401,1773,1948
1784828939.1422,1770,1946
1784828939.1443,1759,1955
1784828939.1464,1726,1947
1784828939.1484,1726,1948
1784828939.1505,1739,1948
1784828939.1526,1733,1948
1784828939.1544,1738,1951
1784828939.1562,1736,1945
1784828939.1581,1754,1954
1784828939.1599,1773,1945
1784828939.1617,1782,1945
1784828939.1635,1786,1946
1784828939.1655,1803,1943
1784828939.1674,1802,1936
1784828939.1694,1770,1943
1784828939.1714,1757,1939
1784828939.1733,1747,1946
1784828939.1753,1714,1934
1784828939.1771,1687,1937
1784828939.1789,1691,1939
1784828939.1807,1704,1938
1784828939.1825,1730,1938
1784828939.1843,1742,1943
1784828939.1862,1748,1929
1784828939.1885,1755,1938
1784828939.1908,1767,1939
1784828939.1932,1803,1933
1784828939.1955,1790,1943
1784828939.1979,1786,1933
1784828939.1999,1779,1934
1784828939.2019,1780,1934
1784828939.2039,1760,1942
1784828939.2059,1754,1933
1784828939.2079,1739,1935
1784828939.2099,1722,1925
1784828939.2118,1735,1928
1784828939.2137,1729,1933
1784828939.2157,1730,1932
1784828939.2176,1749,1923
1784828939.2195,1746,1921
1784828939.2215,1752,1930
1784828939.2234,1806,1922
1784828939.2254,1835,1933
1784828939.2273,1838,1930
1784828939.2292,1792,1929
1784828939.2312,1741,1919
1784828939.2331,1691,1924
1784828939.2357,1689,1919
1784828939.2382,1680,1928
1784828939.2407,1684,1922
1784828939.2433,1730,1924
1784828939.2458,1745,1923
1784828939.2483,1750,1923
1784828939.2499,1755,1918
1784828939.2515,1771,1917
1784828939.2531,1778,1921
1784828939.2547,1777,1924
1784828939.2563,1768,1914
1784828939.2670,1779,1917
1784828939.2672,1774,1921
1784828939.2673,1771,1920
1784828939.2675,1772,1919
1784828939.2677,1780,1912
1784828939.2678,1776,1913
1784828939.2697,1819,1911
1784828939.2716,1784,1912
1784828939.2736,1744,1913
1784828939.2755,1729,1912
1784828939.2774,1707,1911
1784828939.2793,1722,1914
1784828939.2813,1729,1909
1784828939.2833,1731,1911
1784828939.2854,1736,1908
1784828939.2874,1748,1906
1784828939.2894,1763,1910
1784828939.2914,1773,1908
1784828939.2934,1777,1913
1784828939.2953,1788,1915
1784828939.2973,1768,1909
1784828939.2992,1763,1901
1784828939.3012,1766,1909
1784828939.3031,1780,1905
1784828939.3060,1747,1897
1784828939.3089,1738,1899
1784828939.3118,1750,1909
1784828939.3146,1778,1911
1784828939.3175,1757,1898
1784828939.3204,1757,1896
1784828939.3214,1780,1901
1784828939.3224,1748,1905
1784828939.3234,1724,1899
1784828939.3245,1716,1907
1784828939.3255,1708,1893
1784828939.3275,1709,1898
1784828939.3295,1695,1899
1784828939.3315,1720,1898
1784828939.3335,1750,1897
1784828939.3355,1773,1902
1784828939.3375,1766,1903
1784828939.3394,1770,1900
1784828939.3414,1767,1877
1784828939.3434,1749,1898
1784828939.3454,1734,1904
1784828939.3473,1745,1897
1784828939.3493,1771,1895
1784828939.3513,1770,1896
1784828939.3533,1771,1898
1784828939.3553,1779,1897
1784828939.3574,1772,1895
1784828939.3594,1779,1896
1784828939.3614,1769,1893
1784828939.3633,1773,1898
1784828939.3652,1767,1894
1784828939.3672,1766,1899
1784828939.3691,1779,1890
1784828939.3710,1786,1883
1784828939.3730,1784,1884
1784828939.3752,1809,1889
1784828939.3775,1777,1888
1784828939.3797,1716,1888
1784828939.3819,1693,1884
1784828939.3842,1713,1887
1784828939.3968,1750,1891
1784828939.3975,1747,1890
1784828939.3981,1743,1890
1784828939.3988,1747,1887
1784828939.3994,1779,1897
1784828939.4001,1796,1887
1784828939.4013,1769,1886
1784828939.4025,1760,1884
1784828939.4037,1745,1890
1784828939.4050,1690,1887
1784828939.4062,1692,1891
1784828939.4074,1735,1879
1784828939.4094,1762,1887
1784828939.4114,1798,1880
1784828939.4134,1778,1891
1784828939.4154,1761,1882
1784828939.4174,1740,1871
1784828939.4194,1722,1878
1784828939.4214,1719,1876
1784828939.4234,1728,1880
1784828939.4254,1715,1878
1784828939.4274,1700,1875
1784828939.4294,1745,1884
1784828939.4314,1761,1873
1784828939.4333,1764,1878
1784828939.4351,1783,1873
1784828939.4369,1760,1877
1784828939.4387,1774,1875
1784828939.4405,1765,1873
1784828939.4424,1786,1874
1784828939.4471,1789,1871
1784828939.4519,1783,1872
1784828939.4566,1775,1886
1784828939.4614,1779,1874
1784828939.4661,1784,1868
1784828939.4673,1791,1876
1784828939.4685,1810,1876
1784828939.4697,1804,1869
1784828939.4709,1722,1868
1784828939.4720,1733,1869
1784828939.4732,1725,1860
1784828939.4740,1758,1875
1784828939.4747,1714,1868
1784828939.4754,1684,1867
1784828939.4762,1699,1871
1784828939.4769,1724,1873
1784828939.4777,1734,1869
1784828939.4797,1799,1874
1784828939.4817,1817,1872
1784828939.4836,1797,1866
1784828939.4856,1753,1870
1784828939.4876,1755,1864
1784828939.4896,1714,1870
1784828939.4916,1690,1866
1784828939.4936,1709,1857
1784828939.4956,1771,1857
1784828939.4977,1791,1865
1784828939.4997,1806,1866
1784828939.5017,1778,1864
1784828939.5039,1889,1901
1784828939.5060,1856,1891
1784828939.5082,1785,1913
1784828939.5103,1694,1901
1784828939.5125,1679,1894
1784828939.5231,1653,1892
1784828939.5234,1625,1903
1784828939.5236,1619,1898
1784828939.5238,1647,1898
1784828939.5240,1694,1893
1784828939.5242,1735,1893
1784828939.5262,1760,1899
1784828939.5282,1780,1852
1784828939.5301,1774,1896
1784828939.5321,1761,1897
1784828939.5341,1784,1876
1784828939.5360,1862,1896
1784828939.5384,1896,1902
1784828939.5407,1935,1933
1784828939.5431,1940,1938
1784828939.5454,1824,1943
1784828939.5477,1681,1919
1784828939.5501,1705,1938
1784828939.5524,1625,1934
1784828939.5548,1645,1939
1784828939.5571,1675,1931
1784828939.5594,1815,1933
1784828939.5618,1924,1936
1784828939.5641,1988,1992
1784828939.5652,1926,1989
1784828939.5663,1857,1996
1784828939.5674,1819,1990
1784828939.5686,1651,2000
1784828939.5697,1720,1993
1784828939.5708,1776,1984
1784828939.5731,1598,1986
1784828939.5754,1424,1984
1784828939.5777,1600,1987
1784828939.5800,1392,1982
1784828939.5823,1530,1973
1784828939.5843,1762,1982
1784828939.5862,1809,1983
1784828939.5882,2156,2157
1784828939.5902,1819,2152
1784828939.5922,1990,2155
1784828939.5941,1945,2151
1784828939.5961,1692,2150
1784828939.5980,1653,2147
1784828939.5999,1585,2142
1784828939.6019,1518,2144
1784828939.6038,1881,2152
1784828939.6057,1440,2137
1784828939.6078,1564,2136
1784828939.6099,1755,2132
1784828939.6119,1745,2136
1784828939.6140,1801,2138
1784828939.6160,1731,2136
1784828939.6181,2162,2237
1784828939.6201,2351,2422
1784828939.6221,2036,2410
1784828939.6242,1817,2408
1784828939.6262,1684,2404
1784828939.6282,1390,2404
1784828939.6302,1422,2398
1784828939.6329,1286,2394
1784828939.6355,1404,2390
1784828939.6381,1890,2392
1784828939.6407,2324,2391
1784828939.6434,2122,2416
1784828939.6460,1825,2419
1784828939.6486,1675,2403
1784828939.6513,1580,2411
1784828939.6539,1566,2410
1784828939.6565,1464,2407
1784828939.6591,1620,2400
1784828939.6599,1687,2401
1784828939.6607,1786,2399
1784828939.6614,1612,2395
1784828939.6622,1713,2395
1784828939.6630,1581,2394
1784828939.6637,1960,2384
1784828939.6658,2180,2384
1784828939.6680,2037,2380
1784828939.6701,1630,2381
1784828939.6722,1775,2378
1784828939.6743,1609,2376
1784828939.6764,1588,2376
1784828939.6782,1526,2374
1784828939.6801,1990,2371
1784828939.6820,2149,2363
1784828939.6838,1708,2370
1784828939.6857,1621,2361
1784828939.6875,1812,2357
1784828939.6893,2066,2355
1784828939.6911,2120,2358
1784828939.6929,1840,2355
1784828939.6947,2086,2360
1784828939.6965,2005,2354
1784828939.6983,2245,2345
1784828939.7007,1933,2344
1784828939.7032,1428,2347
1784828939.7056,1372,2340
1784828939.7081,1455,2342
1784828939.7105,1424,2337
1784828939.7125,1588,2337
1784828939.7145,1281,2339
1784828939.7165,1167,2332
1784828939.7184,1203,2326
1784828939.7204,1509,2323
1784828939.7224,2144,2327
1784828939.7249,1877,2326
1784828939.7275,1788,2323
1784828939.7300,1555,2323
1784828939.7325,1722,2321
1784828939.7351,1806,2317
1784828939.7376,1649,2313
1784828939.7401,1827,2307
1784828939.7427,1730,2313
1784828939.7452,1712,2304
1784828939.7477,1987,2307
1784828939.7503,1921,2306
1784828939.7528,1802,2302
1784828939.7536,1968,2299
1784828939.7544,2008,2294
1784828939.7551,1873,2297
1784828939.7559,1775,2293
1784828939.7567,1842,2296
1784828939.7575,1850,2293
1784828939.7596,1940,2289
1784828939.7618,1896,2289
1784828939.7639,1801,2285
1784828939.7661,1840,2284
1784828939.7682,1856,2280
1784828939.7792,2249,2278
1784828939.7795,2228,2341
1784828939.7799,2032,2329
1784828939.7802,1872,2325
1784828939.7806,2450,2461
1784828939.7809,2159,2490
1784828939.7828,1599,2478
1784828939.7846,1303,2478
1784828939.7864,1439,2476
1784828939.7883,1488,2477
1784828939.7901,1229,2468
1784828939.7919,1141,2470
1784828939.7939,1472,2465
1784828939.7959,1520,2461
1784828939.7979,1392,2460
1784828939.7999,1407,2455
1784828939.8019,1493,2451
1784828939.8039,1449,2450
1784828939.8059,1861,2446
1784828939.8078,1852,2449
1784828939.8098,1667,2445
1784828939.8117,1654,2441
1784828939.8137,1553,2438
1784828939.8156,1614,2437
1784828939.8175,1695,2431
1784828939.8193,1682,2435
1784828939.8212,1712,2429
1784828939.8230,1646,2429
1784828939.8249,1659,2422
1784828939.8267,1733,2418
1784828939.8309,1869,2419
1784828939.8352,1928,2415
1784828939.8394,2044,2415
1784828939.8436,2080,2413
1784828939.8478,1903,2409
1784828939.8482,1964,2404
1784828939.8486,2007,2407
1784828939.8489,1918,2405
1784828939.8493,1831,2399
1784828939.8497,1820,2402
1784828939.8500,1899,2388
1784828939.8520,2080,2392
1784828939.8539,2272,2390
1784828939.8559,2052,2387
1784828939.8578,1800,2387
1784828939.8598,2035,2389
1784828939.8617,2532,2594
1784828939.8637,2289,2596
1784828939.8657,1625,2581
1784828939.8676,1594,2571
1784828939.8696,1400,2559
1784828939.8716,1165,2564
1784828939.8736,1237,2556
1784828939.8757,1230,2558
1784828939.8779,1514,2557
1784828939.8801,1525,2556
1784828939.8823,1498,2557
1784828939.8844,1454,2549
1784828939.8866,1167,2543
1784828939.8886,1188,2548
1784828939.8905,1383,2546
1784828939.8925,1645,2538
1784828939.8945,1698,2544
1784828939.8964,1771,2533
1784828939.9071,1489,2533
1784828939.9073,1727,2529
1784828939.9075,1891,2534
1784828939.9077,1780,2523
1784828939.9079,1858,2519
1784828939.9081,2172,2515
1784828939.9101,2332,2513
1784828939.9121,2070,2501
1784828939.9140,2007,2504
1784828939.9160,1994,2514
1784828939.9179,1720,2500
1784828939.9199,1675,2499
1784828939.9237,1747,2501
1784828939.9275,1818,2497
1784828939.9313,1782,2489
1784828939.9351,1817,2488
1784828939.9389,1860,2489
1784828939.9427,1861,2485
1784828939.9429,1750,2478
1784828939.9430,1915,2479
1784828939.9431,2113,2479
1784828939.9433,2148,2469
1784828939.9434,2019,2470
1784828939.9435,2154,2475
1784828939.9454,2064,2466
1784828939.9472,1961,2468
1784828939.9490,1998,2461
1784828939.9508,1706,2456
1784828939.9526,1933,2450
1784828939.9544,1688,2468
1784828939.9564,1225,2447
1784828939.9583,851,2449
1784828939.9603,728,2457
1784828939.9623,1355,2443
1784828939.9643,1576,2445
1784828939.9662,1515,2442
1784828939.9686,1443,2440
1784828939.9709,1505,2436
1784828939.9733,1695,2433
1784828939.9756,1698,2434
1784828939.9780,1601,2431
1784828939.9801,1535,2429
1784828939.9822,1819,2426
1784828939.9843,1918,2459
1784828939.9864,1921,2399
1784828939.9885,1949,2412
1784828939.9906,1657,2415
1784828939.9925,1746,2411
1784828939.9943,1945,2416
1784828939.9962,1909,2407
1784828939.9980,1902,2403
1784828939.9999,1922,2406
1784828940.0017,1927,2404
1784828940.0037,1946,2404
1784828940.0057,1941,2399
1784828940.0077,1929,2393
1784828940.0097,1861,2392
1784828940.0117,1794,2391
1784828940.0137,2112,2387
1784828940.0156,1991,2410
1784828940.0176,1720,2374
1784828940.0196,1761,2386
1784828940.0216,1722,2356
1784828940.0236,1709,2376
1784828940.0255,2147,2380
1784828940.0277,2103,2381
1784828940.0299,1800,2369
1784828940.0320,1767,2370
1784828940.0342,1749,2370
1784828940.0364,1762,2363
1784828940.0606,1706,2351
1784828940.0617,1560,2364
1784828940.0628,1369,2364
1784828940.0639,1199,2372
1784828940.0650,1424,2358
1784828940.0661,1519,2328
1784828940.0672,1516,2353
1784828940.0683,1600,2370
1784828940.0694,1574,2358
1784828940.0706,1717,2345
1784828940.0717,1625,2340
1784828940.0728,1759,2342
1784828940.0729,1828,2321
1784828940.0731,1601,2342
1784828940.0733,1722,2335
1784828940.0734,1833,2328
1784828940.0736,1904,2326
1784828940.0738,1753,2330
1784828940.0754,1664,2331
1784828940.0770,1610,2328
1784828940.0787,1697,2320
1784828940.0803,1784,2320
1784828940.0820,1903,2335
1784828940.0836,1950,2318
1784828940.0855,1877,2295
1784828940.0875,1878,2314
1784828940.0894,1901,2296
1784828940.0914,1975,2303
1784828940.0933,1954,2273
1784828940.0953,1813,2307
1784828940.0974,1782,2304
1784828940.0995,1866,2303
1784828940.1016,1755,2300
1784828940.1037,1759,2295
1784828940.1058,1705,2296
1784828940.1078,1733,2301
1784828940.1098,2545,2550
1784828940.1117,2474,2586
1784828940.1137,1915,2574
1784828940.1157,1519,2570
1784828940.1177,1374,2558
1784828940.1196,1782,2558
1784828940.1215,1804,2559
1784828940.1235,1764,2559
1784828940.1254,1358,2556
1784828940.1274,1290,2551
1784828940.1293,1353,2550
1784828940.1312,1486,2542
1784828940.1332,1491,2534
1784828940.1351,1289,2541
1784828940.1371,1425,2531
1784828940.1390,1638,2529
1784828940.1410,1807,2569
1784828940.1430,1841,2527
1784828940.1450,1638,2499
1784828940.1470,1642,2498
1784828940.1490,1812,2513
1784828940.1510,1834,2506
1784828940.1531,1917,2512
1784828940.1552,1930,2515
1784828940.1574,1809,2511
1784828940.1596,1851,2483
1784828940.1618,1858,2500
1784828940.1640,1786,2505
1784828940.1771,1686,2497
1784828940.1772,1713,2485
1784828940.1774,1856,2485
1784828940.1775,1800,2488
1784828940.1777,1909,2487
1784828940.1778,1956,2525
1784828940.1794,1896,2480
1784828940.1810,1809,2462
1784828940.1826,1837,2480
1784828940.1842,2092,2473
1784828940.1858,2091,2473
1784828940.1874,1971,2485
1784828940.1894,2092,2463
1784828940.1915,2034,2473
1784828940.1936,2304,2463
1784828940.1957,1938,2464
1784828940.1977,1477,2459
1784828940.1998,1103,2455
1784828940.2017,1628,2452
1784828940.2036,1586,2451
1784828940.2055,1421,2443
1784828940.2074,1462,2443
1784828940.2092,1534,2451
1784828940.2111,1687,2439
1784828940.2130,1684,2440
1784828940.2148,1386,2437
1784828940.2166,1297,2438
1784828940.2184,1481,2432
1784828940.2202,1703,2433
1784828940.2221,1747,2425
1784828940.2244,1799,2429
1784828940.2267,1920,2420
1784828940.2290,1846,2423
1784828940.2313,2298,2424
1784828940.2337,1934,2419
1784828940.2369,1628,2415
1784828940.2402,1440,2420
1784828940.2434,1316,2406
1784828940.2466,1633,2406
1784828940.2499,1533,2403
1784828940.2531,1528,2405
1784828940.2538,1788,2396
1784828940.2545,1956,2414
1784828940.2552,1775,2390
1784828940.2559,1913,2385
1784828940.2566,1731,2387
1784828940.2572,1764,2395
1784828940.2592,1772,2389
1784828940.2612,1758,2382
1784828940.2632,2063,2384
1784828940.2652,2067,2377
1784828940.2671,1934,2378
1784828940.2691,1900,2371
1784828940.2711,1926,2369
1784828940.2731,2253,2372
1784828940.2751,2288,2364
1784828940.2770,2117,2363
1784828940.2790,1938,2361
1784828940.2810,1738,2366
1784828940.2832,1591,2354
1784828940.2854,1351,2360
1784828940.2875,2004,2351
1784828940.2897,1824,2351
1784828940.2919,1728,2354
1784828940.3031,1443,2349
1784828940.3032,1764,2348
1784828940.3034,1580,2345
1784828940.3035,1520,2352
1784828940.3037,1676,2349
1784828940.3038,1727,2344
1784828940.3058,1421,2338
