host_time_s,chA_raw,chB_env,env,intent
1784849916.4512,1752,1888,1959,1000
1784849916.4514,1744,1894,1958,1000
1784849916.4515,1743,1902,1957,1000
1784849916.4517,1753,1896,1957,1000
1784849916.4519,1753,1902,1956,1000
1784849916.4520,1744,1902,1955,1000
1784849916.4522,1741,1897,1955,1000
1784849916.4523,1760,1897,1954,1000
1784849916.4525,1751,1897,1953,1000
1784849916.4539,1745,1891,1952,1000
1784849916.4553,1744,1900,1952,1000
1784849916.4566,1751,1898,1951,1000
1784849916.4585,1750,1897,1951,1000
1784849916.4604,1756,1884,1950,1000
1784849916.4623,1746,1894,1949,1000
1784849916.4645,1746,1898,1948,1000
1784849916.4666,1753,1892,1948,1000
1784849916.4687,1758,1894,1947,1000
1784849916.4708,1748,1889,1946,1000
1784849916.4728,1757,1888,1946,1000
1784849916.4748,1755,1890,1945,1000
1784849916.4770,1774,1887,1944,1000
1784849916.4792,1769,1889,1944,1000
1784849916.4814,1740,1889,1943,1000
1784849916.4834,1743,1892,1942,1000
1784849916.4853,1746,1891,1942,1000
1784849916.4872,1742,1889,1941,1000
1784849916.4891,1741,1890,1940,1000
1784849916.4911,1752,1888,1940,1000
1784849916.4930,1768,1893,1939,1000
1784849916.4950,1744,1877,1938,1000
1784849916.4970,1743,1885,1938,1000
1784849916.4990,1750,1882,1937,1000
1784849916.5012,1753,1887,1936,1000
1784849916.5035,1740,1887,1936,1000
1784849916.5058,1751,1887,1935,1000
1784849916.5081,1751,1885,1935,1000
1784849916.5103,1762,1880,1934,1000
1784849916.5126,1763,1879,1933,1000
1784849916.5147,1747,1883,1933,1000
1784849916.5167,1750,1885,1932,1000
1784849916.5187,1757,1877,1931,1000
1784849916.5203,1762,1880,1931,1000
1784849916.5219,1740,1883,1930,1000
1784849916.5235,1743,1876,1929,1000
1784849916.5255,1747,1874,1929,1000
1784849916.5275,1756,1879,1928,1000
1784849916.5295,1748,1883,1928,1000
1784849916.5316,1748,1885,1927,1000
1784849916.5337,1755,1873,1926,1000
1784849916.5358,1741,1878,1926,1000
1784849916.5380,1745,1885,1925,1000
1784849916.5402,1746,1876,1925,1000
1784849916.5423,1741,1874,1924,1000
1784849916.5451,1752,1872,1923,1000
1784849916.5479,1747,1875,1923,1000
1784849916.5506,1742,1874,1922,1000
1784849916.5522,1737,1871,1922,1000
1784849916.5538,1759,1873,1921,1000
1784849916.5554,1750,1871,1920,1000
1784849916.5569,1743,1877,1920,1000
1784849916.5585,1751,1876,1919,1000
1784849916.5600,1750,1870,1919,1000
1784849916.5636,1749,1872,1918,1000
1784849916.5671,1744,1876,1917,1000
1784849916.5707,1750,1856,1917,1000
1784849916.5709,1748,1872,1916,1000
1784849916.5712,1734,1869,1916,1000
1784849916.5714,1746,1869,1915,1000
1784849916.5717,1749,1869,1914,1000
1784849916.5739,1754,1870,1914,1000
1784849916.5762,1752,1870,1913,1000
1784849916.5785,1765,1871,1913,1000
1784849916.5805,1740,1866,1912,1000
1784849916.5826,1746,1869,1912,1000
1784849916.5846,1743,1869,1911,1000
1784849916.5866,1748,1875,1911,1000
1784849916.5886,1759,1867,1910,1000
1784849916.5905,1747,1869,1909,1000
1784849916.5926,1752,1865,1909,1000
1784849916.5946,1750,1871,1908,1000
1784849916.5966,1739,1860,1908,1000
1784849916.5987,1744,1869,1907,1000
1784849916.6007,1752,1862,1907,1000
1784849916.6027,1750,1869,1906,1000
1784849916.6047,1748,1865,1906,1000
1784849916.6068,1746,1862,1905,1000
1784849916.6088,1757,1866,1905,1000
1784849916.6109,1746,1861,1904,1000
1784849916.6130,1750,1866,1904,1000
1784849916.6151,1745,1863,1903,1000
1784849916.6172,1776,1871,1903,1000
1784849916.6193,1740,1862,1902,1000
1784849916.6214,1736,1862,1902,1000
1784849916.6236,1749,1862,1901,1000
1784849916.6257,1750,1865,1901,1000
1784849916.6278,1762,1866,1900,1000
1784849916.6299,1770,1860,1900,1000
1784849916.6321,1753,1859,1899,1000
1784849916.6342,1754,1860,1899,1000
1784849916.6363,1757,1856,1898,1000
1784849916.6384,1753,1860,1897,1000
1784849916.6406,1763,1856,1897,1000
1784849916.6427,1733,1863,1896,1000
1784849916.6448,1765,1862,1896,1000
1784849916.6469,1736,1857,1895,1000
1784849916.6490,1738,1858,1895,1000
1784849916.6512,1767,1861,1895,1000
1784849916.6533,1746,1860,1894,1000
1784849916.6554,1744,1850,1893,1000
1784849916.6575,1758,1859,1893,1000
1784849916.6597,1709,1858,1893,1000
1784849916.6618,1729,1856,1892,1000
1784849916.6639,1712,1852,1892,1000
1784849916.6660,1747,1856,1891,1000
1784849916.6682,1778,1853,1891,1000
1784849916.6703,1786,1849,1890,1000
1784849916.6724,1766,1857,1890,1000
1784849916.6735,1763,1847,1889,1000
1784849916.6746,1772,1855,1889,1000
1784849916.6756,1761,1857,1888,1000
1784849916.6789,1743,1851,1888,1000
1784849916.6823,1765,1847,1887,1000
1784849916.6856,1745,1849,1887,1000
1784849916.6864,1757,1844,1886,1000
1784849916.6873,1774,1853,1886,1000
1784849916.6881,1762,1856,1885,1000
1784849916.6903,1757,1850,1885,1000
1784849916.6925,1771,1849,1884,1000
1784849916.6946,1765,1854,1884,1000
1784849916.6997,1757,1848,1883,1000
1784849916.7000,1751,1854,1883,1000
1784849916.7003,1754,1850,1882,1000
1784849916.7006,1761,1843,1882,1000
1784849916.7027,1757,1851,1882,1000
1784849916.7047,1746,1851,1881,1000
1784849916.7068,1763,1847,1881,1000
1784849916.7086,1757,1857,1880,1000
1784849916.7104,1753,1853,1880,1000
1784849916.7122,1748,1848,1879,1000
1784849916.7143,1756,1847,1879,1000
1784849916.7164,1748,1852,1879,1000
1784849916.7185,1751,1846,1878,1000
1784849916.7206,1745,1853,1878,1000
1784849916.7227,1742,1859,1877,1000
1784849916.7248,1748,1842,1877,1000
1784849916.7268,1741,1847,1877,1000
1784849916.7288,1754,1848,1876,1000
1784849916.7308,1754,1850,1876,1000
1784849916.7328,1760,1844,1875,1000
1784849916.7348,1756,1851,1875,1000
1784849916.7368,1746,1841,1875,1000
1784849916.7388,1741,1842,1874,1000
1784849916.7408,1748,1840,1874,1000
1784849916.7428,1759,1841,1873,1000
1784849916.7448,1750,1844,1873,1000
1784849916.7468,1742,1843,1872,1000
1784849916.7488,1750,1838,1872,1000
1784849916.7508,1761,1846,1871,1000
1784849916.7528,1755,1840,1871,1000
1784849916.7548,1750,1843,1871,1000
1784849916.7568,1754,1844,1870,1000
1784849916.7588,1760,1844,1870,1000
1784849916.7608,1752,1839,1869,1000
1784849916.7628,1745,1840,1869,1000
1784849916.7648,1751,1841,1869,1000
1784849916.7668,1751,1847,1868,1000
1784849916.7688,1756,1835,1868,1000
1784849916.7708,1748,1844,1867,1000
1784849916.7728,1750,1843,1867,1000
1784849916.7747,1772,1840,1867,1000
1784849916.7767,1766,1840,1866,1000
1784849916.7787,1742,1838,1866,1000
1784849916.7807,1744,1838,1866,1000
1784849916.7827,1751,1839,1865,1000
1784849916.7847,1766,1833,1865,1000
1784849916.7867,1744,1835,1864,1000
1784849916.7887,1739,1842,1864,1000
1784849916.7907,1764,1842,1864,1000
1784849916.7927,1769,1840,1863,1000
1784849916.7947,1786,1836,1863,1000
1784849916.7967,1728,1836,1862,1000
1784849916.7987,1750,1835,1862,1000
1784849916.8007,1754,1834,1862,1000
1784849916.8027,1754,1839,1861,1000
1784849916.8047,1744,1833,1861,1000
1784849916.8067,1750,1840,1861,1000
1784849916.8087,1750,1830,1860,1000
1784849916.8107,1755,1837,1860,1000
1784849916.8127,1747,1830,1859,1000
1784849916.8147,1761,1832,1859,1000
1784849916.8167,1760,1837,1859,1000
1784849916.8187,1756,1835,1858,1000
1784849916.8207,1749,1831,1858,1000
1784849916.8227,1743,1836,1858,1000
1784849916.8247,1764,1833,1857,1000
1784849916.8267,1752,1838,1857,1000
1784849916.8287,1743,1836,1857,1000
1784849916.8307,1758,1840,1856,1000
1784849916.8327,1767,1832,1856,1000
1784849916.8347,1762,1839,1856,1000
1784849916.8367,1747,1833,1855,1000
1784849916.8387,1739,1832,1855,1000
1784849916.8407,1767,1831,1855,1000
1784849916.8427,1753,1833,1854,1000
1784849916.8447,1744,1833,1854,1000
1784849916.8467,1744,1832,1854,1000
1784849916.8487,1754,1827,1853,1000
1784849916.8507,1748,1832,1853,1000
1784849916.8527,1772,1828,1852,1000
1784849916.8547,1757,1827,1852,1000
1784849916.8567,1756,1830,1852,1000
1784849916.8587,1767,1828,1851,1000
1784849916.8607,1760,1836,1851,1000
1784849916.8627,1753,1827,1851,1000
1784849916.8647,1752,1833,1850,1000
1784849916.8667,1750,1835,1850,1000
1784849916.8687,1754,1823,1850,1000
1784849916.8707,1747,1827,1849,1000
1784849916.8727,1743,1832,1849,1000
1784849916.8747,1763,1821,1849,1000
1784849916.8767,1765,1822,1848,1000
1784849916.8787,1747,1830,1848,1000
1784849916.8807,1746,1824,1848,1000
1784849916.8827,1760,1825,1847,1000
1784849916.8847,1762,1827,1847,1000
1784849916.8867,1778,1820,1847,1000
1784849916.8887,1728,1831,1846,1000
1784849916.8907,1753,1832,1846,1000
1784849916.8927,1764,1826,1846,1000
1784849916.8947,1754,1827,1845,1000
1784849916.8967,1742,1824,1845,1000
1784849916.8987,1746,1821,1845,1000
1784849916.9007,1759,1830,1844,1000
1784849916.9027,1758,1826,1844,1000
1784849916.9047,1742,1822,1844,1000
1784849916.9067,1748,1829,1844,1000
1784849916.9087,1753,1823,1843,1000
1784849916.9107,1755,1833,1843,1000
1784849916.9127,1745,1823,1843,1000
1784849916.9147,1747,1817,1842,1000
1784849916.9167,1761,1822,1842,1000
1784849916.9187,1745,1825,1842,1000
1784849916.9207,1747,1820,1841,1000
1784849916.9227,1747,1824,1841,1000
1784849916.9247,1753,1825,1841,1000
1784849916.9267,1749,1820,1840,1000
1784849916.9287,1750,1821,1840,1000
1784849916.9307,1748,1818,1840,1000
1784849916.9327,1754,1821,1839,1000
1784849916.9347,1751,1818,1839,1000
1784849916.9367,1748,1823,1839,1000
1784849916.9387,1771,1819,1839,1000
1784849916.9407,1740,1818,1838,1000
1784849916.9427,1748,1818,1838,1000
1784849916.9447,1748,1816,1838,1000
1784849916.9467,1744,1816,1837,1000
1784849916.9487,1740,1822,1837,1000
1784849916.9507,1747,1814,1837,1000
1784849916.9527,1704,1821,1836,1000
1784849916.9547,1767,1819,1836,1000
1784849916.9567,1740,1817,1836,1000
1784849916.9587,1692,1816,1835,1000
1784849916.9607,1729,1818,1835,1000
1784849916.9627,1775,1822,1835,1000
1784849916.9647,1748,1822,1835,1000
1784849916.9667,1767,1812,1834,1000
1784849916.9687,1817,1824,1834,1000
1784849916.9707,1787,1808,1834,1000
1784849916.9727,1780,1820,1833,1000
1784849916.9747,1582,1812,1833,1000
1784849916.9767,1587,1811,1833,1000
1784849916.9787,1863,1906,1833,1000
1784849916.9807,2834,2815,1843,1000
1784849916.9827,2626,2809,1853,1000
1784849916.9847,2640,2796,1862,1000
1784849916.9867,2557,2790,1871,1000
1784849916.9887,2477,2794,1880,1000
1784849916.9907,2369,2781,1889,1000
1784849916.9927,2306,2774,1898,1000
1784849916.9947,2226,2763,1906,1000
1784849916.9967,2152,2767,1915,1000
1784849916.9987,2053,2759,1923,1000
1784849917.0007,1998,2759,1931,1000
1784849917.0027,1930,2750,1939,1000
1784849917.0047,1891,2746,1947,1000
1784849917.0067,1847,2745,1955,1000
1784849917.0087,1856,2737,1963,1000
1784849917.0107,1783,2735,1970,1000
1784849917.0127,1759,2730,1978,1000
1784849917.0147,1730,2732,1985,1000
1784849917.0167,1667,2720,1993,1000
1784849917.0187,1580,2736,2000,1000
1784849917.0207,1703,2718,2007,1000
1784849917.0227,1711,2715,2014,1000
1784849917.0247,1696,2711,2021,1000
1784849917.0267,1671,2708,2028,1000
1784849917.0287,1642,2697,2034,1000
1784849917.0307,1701,2699,2041,1000
1784849917.0327,1646,2689,2047,1000
1784849917.0347,1650,2690,2053,1000
1784849917.0367,1739,2690,2060,1000
1784849917.0387,1728,2677,2066,1000
1784849917.0407,1747,2678,2072,1000
1784849917.0427,1736,2675,2077,1000
1784849917.0447,1718,2673,2083,1000
1784849917.0467,1701,2668,2089,1000
1784849917.0487,1705,2663,2095,1000
1784849917.0507,1744,2664,2100,1000
1784849917.0527,1724,2655,2106,1000
1784849917.0547,1730,2654,2111,1000
1784849917.0567,1733,2656,2116,1000
1784849917.0587,1726,2648,2122,1000
1784849917.0607,1716,2647,2127,1000
1784849917.0627,1712,2643,2132,1000
1784849917.0647,1720,2638,2137,1000
1784849917.0667,1741,2634,2142,1000
1784849917.0687,1759,2634,2146,1000
1784849917.0707,1598,2627,2151,1000
1784849917.0727,1745,2628,2156,1000
1784849917.0747,1761,2624,2160,1000
1784849917.0767,1756,2622,2165,1000
1784849917.0787,1747,2616,2169,1000
1784849917.0807,1741,2619,2173,1000
1784849917.0827,1757,2611,2178,1000
1784849917.0847,1755,2610,2182,1000
1784849917.0867,1729,2606,2186,1000
1784849917.0887,1751,2600,2190,1000
1784849917.0907,1769,2592,2194,1000
1784849917.0927,1766,2600,2198,1000
1784849917.0947,1762,2597,2202,1000
1784849917.0967,1748,2588,2206,1000
1784849917.0987,1748,2585,2209,1000
1784849917.1007,1748,2582,2213,1000
1784849917.1027,1746,2571,2216,1000
1784849917.1047,1752,2565,2220,1000
1784849917.1066,1764,2564,2223,1000
1784849917.1086,1741,2559,2226,1000
1784849917.1105,1762,2559,2229,1000
1784849917.1124,1751,2555,2233,1000
1784849917.1143,1754,2559,2236,1000
1784849917.1163,1759,2549,2239,1000
1784849917.1183,1758,2550,2242,1000
1784849917.1202,1748,2555,2245,1000
1784849917.1224,1745,2550,2248,1000
1784849917.1246,1766,2547,2250,1000
1784849917.1267,1756,2538,2253,1000
1784849917.1287,1764,2538,2256,1000
1784849917.1306,1752,2555,2259,1000
1784849917.1326,1773,2538,2262,1000
1784849917.1346,1758,2530,2264,1000
1784849917.1366,1745,2534,2267,1000
1784849917.1386,1744,2525,2269,1000
1784849917.1407,1761,2521,2272,1000
1784849917.1428,1777,2519,2274,1000
1784849917.1448,1746,2522,2276,1000
1784849917.1470,1742,2508,2278,1000
1784849917.1492,1750,2511,2281,1000
1784849917.1513,1639,2524,2283,1000
1784849917.1532,1772,2509,2285,1000
1784849917.1550,1755,2498,2287,1000
1784849917.1569,1755,2498,2289,1000
1784849917.1590,1762,2496,2291,1000
1784849917.1611,1761,2505,2293,1000
1784849917.1632,1754,2496,2295,1000
1784849917.1651,1740,2492,2297,1000
1784849917.1671,1756,2480,2299,1000
1784849917.1690,1755,2488,2300,1000
1784849917.1712,1764,2475,2302,1000
1784849917.1734,1762,2478,2304,1000
1784849917.1756,1759,2482,2305,1000
1784849917.1775,1760,2469,2307,1000
1784849917.1795,1748,2469,2308,1000
1784849917.1814,1743,2468,2310,1000
1784849917.1834,1751,2472,2311,1000
1784849917.1853,1756,2466,2313,1000
1784849917.1873,1746,2467,2314,1000
1784849917.1894,1747,2460,2315,1000
1784849917.1915,1760,2458,2317,1000
1784849917.1936,1768,2461,2318,1000
1784849917.1956,1756,2451,2319,1000
1784849917.1976,1744,2451,2320,1000
1784849917.1996,1743,2449,2322,1000
1784849917.2019,1761,2448,2323,1000
1784849917.2042,1751,2446,2324,1000
1784849917.2064,1740,2443,2325,1000
1784849917.2110,1767,2442,2326,1000
1784849917.2112,1766,2432,2327,1000
1784849917.2114,1776,2431,2328,1000
1784849917.2116,1750,2432,2329,1000
1784849917.2137,1758,2422,2330,1000
1784849917.2158,1769,2426,2330,1000
1784849917.2179,1755,2422,2331,1000
1784849917.2200,1743,2424,2332,1000
1784849917.2220,1751,2419,2333,1000
1784849917.2241,1753,2416,2333,1000
1784849917.2261,1754,2419,2334,1000
1784849917.2282,1746,2415,2335,1000
1784849917.2302,1755,2414,2336,1000
1784849917.2322,1760,2414,2336,1000
1784849917.2342,1764,2411,2337,1000
1784849917.2363,1754,2409,2337,1000
1784849917.2383,1749,2403,2338,1000
1784849917.2403,1757,2396,2338,1000
1784849917.2423,1761,2398,2339,1000
1784849917.2483,1759,2404,2339,1000
1784849917.2543,1760,2396,2340,1000
1784849917.2602,1762,2389,2340,1000
1784849917.2604,1756,2387,2341,1000
1784849917.2606,1755,2389,2341,1000
1784849917.2608,1746,2389,2341,1000
1784849917.2609,1755,2391,2342,1000
1784849917.2611,1774,2386,2342,1000
1784849917.2613,1746,2377,2342,1000
1784849917.2637,1748,2378,2342,1000
1784849917.2662,1749,2377,2343,1000
1784849917.2686,1754,2375,2343,1000
1784849917.2710,1749,2367,2343,1000
1784849917.2735,1754,2374,2343,1000
1784849917.2759,1759,2365,2343,1000
1784849917.2775,1757,2359,2343,1000
1784849917.2790,1763,2362,2343,1000
1784849917.2805,1749,2360,2343,1000
1784849917.2850,1745,2360,2343,1000
1784849917.2895,1762,2354,2343,1000
1784849917.2939,1766,2350,2343,1000
1784849917.2984,1754,2348,2343,1000
1784849917.3029,1759,2351,2343,1000
1784849917.3074,1767,2350,2343,1000
1784849917.3076,1764,2351,2343,1000
1784849917.3077,1757,2342,2343,1000
1784849917.3079,1754,2350,2343,1000
1784849917.3081,1743,2343,2343,1000
1784849917.3083,1761,2340,2343,1000
1784849917.3084,1760,2337,2343,1000
1784849917.3091,1738,2330,2342,1000
1784849917.3098,1741,2326,2342,1000
1784849917.3105,1746,2331,2342,1000
1784849917.3131,1764,2331,2342,1000
1784849917.3157,1752,2325,2341,1000
1784849917.3183,1749,2313,2341,1000
1784849917.3194,1757,2320,2341,1000
1784849917.3205,1757,2320,2340,1000
1784849917.3216,1746,2322,2340,1000
1784849917.3241,1752,2318,2340,1000
1784849917.3265,1758,2314,2339,1000
1784849917.3289,1756,2314,2339,1000
1784849917.3314,1752,2306,2338,1000
1784849917.3338,1772,2308,2338,1000
1784849917.3362,1745,2306,2338,1000
1784849917.3387,1761,2306,2337,1000
1784849917.3411,1753,2305,2337,1000
1784849917.3435,1762,2300,2336,1000
1784849917.3460,1760,2298,2336,1000
1784849917.3463,1758,2299,2335,1000
1784849917.3467,1753,2301,2335,1000
1784849917.3470,1744,2296,2334,1000
1784849917.3487,1751,2290,2334,1000
1784849917.3504,1777,2290,2333,1000
1784849917.3521,1757,2289,2332,1000
1784849917.3555,1752,2288,2332,1000
1784849917.3588,1756,2290,2331,1000
1784849917.3622,1769,2285,2331,1000
1784849917.3652,1751,2284,2330,1000
1784849917.3683,1737,2280,2330,1000
1784849917.3713,1745,2277,2329,1000
1784849917.3744,1770,2275,2328,1000
1784849917.3774,1742,2278,2328,1000
1784849917.3805,1761,2278,2327,1000
1784849917.3835,1751,2269,2326,1000
1784849917.3866,1762,2268,2326,1000
1784849917.3896,1760,2263,2325,1000
1784849917.3927,1746,2261,2324,1000
1784849917.3957,1747,2261,2323,1000
1784849917.3987,1753,2262,2323,1000
1784849917.4018,1759,2261,2322,1000
1784849917.4048,1745,2254,2321,1000
1784849917.4079,1755,2252,2320,1000
1784849917.4109,1772,2253,2319,1000
1784849917.4140,1766,2255,2319,1000
1784849917.4170,1753,2246,2318,1000
1784849917.4201,1757,2248,2317,1000
1784849917.4231,1749,2246,2316,1000
1784849917.4262,1763,2248,2315,1000
1784849917.4263,1752,2249,2315,1000
1784849917.4265,1744,2245,2314,1000
1784849917.4266,1756,2235,2313,1000
1784849917.4268,1761,2243,2312,1000
1784849917.4269,1767,2236,2311,1000
1784849917.4271,1758,2243,2310,1000
1784849917.4272,1762,2235,2310,1000
1784849917.4274,1761,2236,2309,1000
1784849917.4276,1754,2209,2308,1000
1784849917.4277,1757,2229,2307,1000
1784849917.4279,1740,2230,2306,1000
1784849917.4280,1759,2224,2305,1000
1784849917.4291,1761,2222,2304,1000
1784849917.4303,1735,2228,2303,1000
1784849917.4314,1740,2225,2302,1000
1784849917.4382,1756,2221,2301,1000
1784849917.4449,1759,2213,2300,1000
1784849917.4516,1755,2217,2299,1000
1784849917.4583,1744,2217,2298,1000
1784849917.4650,1759,2214,2297,1000
1784849917.4717,1760,2212,2296,1000
1784849917.4718,1748,2212,2295,1000
1784849917.4719,1740,2208,2294,1000
1784849917.4720,1744,2210,2293,1000
1784849917.4721,1758,2208,2292,1000
1784849917.4722,1715,2206,2291,1000
1784849917.4723,1753,2204,2290,1000
1784849917.4724,1759,2206,2289,1000
1784849917.4725,1765,2201,2288,1000
1784849917.4726,1766,2201,2287,1000
1784849917.4727,1743,2197,2286,1000
1784849917.4728,1745,2194,2285,1000
1784849917.4729,1773,2196,2284,1000
1784849917.4730,1754,2192,2283,1000
1784849917.4737,1761,2189,2282,1000
1784849917.4744,1751,2189,2281,1000
1784849917.4751,1763,2194,2280,1000
1784849917.4771,1764,2187,2279,1000
1784849917.4790,1753,2192,2278,1000
1784849917.4810,1749,2183,2277,1000
1784849917.4830,1763,2182,2276,1000
1784849917.4850,1770,2182,2275,1000
1784849917.4870,1730,2185,2274,1000
1784849917.4903,1727,2179,2273,1000
1784849917.4936,1626,2197,2272,1000
1784849917.4969,1773,2179,2271,1000
1784849917.4975,1758,2173,2270,1000
1784849917.4981,1745,2171,2269,1000
1784849917.4987,1750,2171,2268,1000
1784849917.5020,1763,2180,2267,1000
1784849917.5054,1763,2167,2266,1000
1784849917.5087,1747,2170,2264,1000
1784849917.5121,1749,2165,2263,1000
1784849917.5154,1787,2164,2262,1000
1784849917.5187,1773,2164,2261,1000
1784849917.5193,1750,2158,2260,1000
1784849917.5198,1748,2160,2259,1000
1784849917.5203,1759,2157,2258,1000
1784849917.5214,1768,2157,2257,1000
1784849917.5226,1746,2159,2255,1000
1784849917.5237,1741,2152,2254,1000
1784849917.5315,1757,2151,2253,1000
1784849917.5393,1802,2150,2252,1000
1784849917.5471,1769,2148,2251,1000
1784849917.5472,1732,2148,2250,1000
1784849917.5473,1766,2149,2249,1000
1784849917.5474,1749,2148,2247,1000
1784849917.5475,1774,2139,2246,1000
1784849917.5476,1754,2143,2245,1000
1784849917.5477,1756,2142,2244,1000
1784849917.5478,1753,2136,2243,1000
1784849917.5479,1741,2145,2242,1000
1784849917.5480,1732,2139,2240,1000
1784849917.5498,1737,2130,2239,1000
1784849917.5515,1767,2134,2238,1000
1784849917.5533,1748,2138,2237,1000
1784849917.5560,1742,2134,2236,1000
1784849917.5587,1761,2139,2235,1000
1784849917.5613,1759,2133,2234,1000
1784849917.5640,1750,2121,2232,1000
1784849917.5666,1742,2126,2231,1000
1784849917.5693,1747,2124,2230,1000
1784849917.5700,1752,2136,2229,1000
1784849917.5708,1755,2123,2228,1000
1784849917.5716,1760,2127,2227,1000
1784849917.5737,1763,2126,2225,1000
1784849917.5758,1752,2118,2224,1000
1784849917.5780,1757,2120,2223,1000
1784849917.5799,1749,2123,2222,1000
1784849917.5819,1748,2116,2221,1000
1784849917.5839,1754,2116,2220,1000
1784849917.5906,1759,2113,2218,1000
1784849917.5974,1745,2112,2217,1000
1784849917.6042,1736,2116,2216,1000
1784849917.6110,1762,2115,2215,1000
1784849917.6177,1765,2110,2214,1000
1784849917.6245,1755,2104,2213,1000
1784849917.6313,1750,2109,2211,1000
1784849917.6338,1765,2108,2210,1000
1784849917.6364,1773,2112,2209,1000
1784849917.6390,1748,2106,2208,1000
1784849917.6415,1740,2104,2207,1000
1784849917.6441,1752,2102,2206,1000
1784849917.6467,1759,2095,2204,1000
1784849917.6492,1770,2097,2203,1000
1784849917.6518,1760,2101,2202,1000
1784849917.6544,1767,2094,2201,1000
1784849917.6569,1753,2096,2200,1000
1784849917.6595,1733,2095,2199,1000
1784849917.6620,1745,2095,2197,1000
1784849917.6646,1744,2095,2196,1000
1784849917.6672,1754,2096,2195,1000
1784849917.6697,1758,2094,2194,1000
1784849917.6723,1762,2093,2193,1000
1784849917.6749,1755,2089,2192,1000
1784849917.6774,1749,2088,2191,1000
1784849917.6778,1756,2093,2189,1000
1784849917.6782,1746,2086,2188,1000
1784849917.6786,1746,2080,2187,1000
1784849917.6790,1754,2079,2186,1000
1784849917.6795,1764,2082,2185,1000
1784849917.6799,1758,2083,2184,1000
1784849917.6803,1742,2079,2182,1000
1784849917.6807,1733,2077,2181,1000
1784849917.6811,1757,2076,2180,1000
1784849917.6815,1760,2076,2179,1000
1784849917.6819,1745,2079,2178,1000
1784849917.6823,1748,2074,2177,1000
1784849917.6827,1764,2075,2176,1000
1784849917.6831,1761,2078,2174,1000
1784849917.6835,1741,2074,2173,1000
1784849917.6839,1750,2065,2172,1000
1784849917.6843,1756,2063,2171,1000
1784849917.6847,1764,2070,2170,1000
1784849917.6851,1756,2064,2169,1000
1784849917.6855,1775,2069,2167,1000
1784849917.6859,1775,2067,2166,1000
1784849917.6861,1780,2065,2165,1000
1784849917.6864,1763,2065,2164,1000
1784849917.6866,1762,2057,2163,1000
1784849917.6868,1757,2060,2162,1000
1784849917.6870,1769,2060,2161,1000
1784849917.6873,1754,2058,2159,1000
1784849917.6895,1744,2053,2158,1000
1784849917.6918,1613,2067,2157,1000
1784849917.6940,1771,2058,2156,1000
1784849917.6959,1761,2048,2155,1000
1784849917.6977,1745,2043,2154,1000
1784849917.6996,1755,2048,2152,1000
1784849917.7019,1771,2049,2151,1000
1784849917.7042,1746,2045,2150,1000
1784849917.7065,1742,2050,2149,1000
1784849917.7089,1745,2053,2148,1000
1784849917.7114,1771,2044,2147,1000
1784849917.7138,1771,2042,2146,1000
1784849917.7161,1758,2042,2144,1000
1784849917.7184,1754,2043,2143,1000
1784849917.7207,1770,2041,2142,1000
1784849917.7230,1756,2047,2141,1000
1784849917.7234,1746,2036,2140,1000
1784849917.7239,1745,2034,2139,1000
1784849917.7243,1763,2032,2138,1000
1784849917.7276,1745,2036,2136,1000
1784849917.7310,1752,2033,2135,1000
1784849917.7343,1749,2028,2134,1000
1784849917.7349,1747,2032,2133,1000
1784849917.7354,1760,2030,2132,1000
1784849917.7360,1754,2029,2131,1000
1784849917.7382,1782,2023,2129,1000
1784849917.7405,1747,2033,2128,1000
1784849917.7427,1760,2037,2127,1000
1784849917.7449,1751,2026,2126,1000
1784849917.7471,1736,2027,2125,1000
1784849917.7493,1757,2021,2124,1000
1784849917.7511,1761,2026,2123,1000
1784849917.7529,1758,2025,2122,1000
1784849917.7546,1747,2017,2121,1000
1784849917.7583,1755,2021,2119,1000
1784849917.7620,1771,2025,2118,1000
1784849917.7657,1748,2023,2117,1000
1784849917.7695,1742,2016,2116,1000
1784849917.7732,1741,2017,2115,1000
1784849917.7769,1750,2020,2114,1000
1784849917.7780,1756,2017,2113,1000
1784849917.7792,1715,2016,2112,1000
1784849917.7804,1746,2015,2111,1000
1784849917.7807,1773,2011,2110,1000
1784849917.7811,1761,2018,2109,1000
1784849917.7815,1751,2005,2107,1000
1784849917.7826,1750,2011,2106,1000
1784849917.7838,1741,2001,2105,1000
1784849917.7849,1756,2014,2104,1000
1784849917.7870,1746,2012,2103,1000
1784849917.7891,1743,2008,2102,1000
1784849917.7911,1759,2006,2101,1000
1784849917.7949,1749,2005,2100,1000
1784849917.7987,1744,2004,2099,1000
1784849917.8025,1748,2003,2098,1000
1784849917.8027,1748,2006,2097,1000
1784849917.8028,1754,1995,2095,1000
1784849917.8030,1762,2001,2094,1000
1784849917.8051,1746,2001,2093,1000
1784849917.8072,1773,2006,2092,1000
1784849917.8093,1773,1996,2091,1000
1784849917.8122,1763,2001,2090,1000
1784849917.8152,1756,1998,2089,1000
1784849917.8181,1759,2001,2088,1000
1784849917.8211,1752,1995,2087,1000
1784849917.8240,1750,1993,2086,1000
1784849917.8270,1743,1993,2085,1000
1784849917.8273,1748,1991,2084,1000
1784849917.8276,1754,1994,2083,1000
1784849917.8278,1755,1986,2082,1000
1784849917.8298,1754,1994,2081,1000
1784849917.8317,1752,1997,2080,1000
1784849917.8336,1754,1992,2079,1000
1784849917.8360,1764,1990,2078,1000
1784849917.8383,1751,1992,2077,1000
1784849917.8407,1744,1989,2076,1000
1784849917.8426,1760,1990,2075,1000
1784849917.8445,1760,1987,2074,1000
1784849917.8464,1755,1986,2073,1000
1784849917.8541,1738,1985,2072,1000
1784849917.8543,1751,1982,2071,1000
1784849917.8546,1772,1978,2070,1000
1784849917.8548,1763,1977,2069,1000
1784849917.8573,1746,1984,2068,1000
1784849917.8597,1746,1978,2067,1000
1784849917.8621,1770,1982,2066,1000
1784849917.8628,1747,1982,2065,1000
1784849917.8635,1741,1981,2064,1000
1784849917.8641,1743,1981,2063,1000
1784849917.8663,1752,1978,2062,1000
1784849917.8684,1749,1974,2061,1000
1784849917.8706,1756,1976,2060,1000
1784849917.8740,1748,1972,2059,1000
1784849917.8774,1759,1982,2058,1000
1784849917.8808,1765,1975,2057,1000
1784849917.8813,1753,1973,2056,1000
1784849917.8818,1740,1974,2055,1000
1784849917.8823,1720,1972,2054,1000
1784849917.8845,1746,1973,2053,1000
1784849917.8868,1746,1925,2052,1000
1784849917.8891,1742,1968,2051,1000
1784849917.8914,1766,1965,2050,1000
1784849917.8937,1781,1969,2049,1000
1784849917.8959,1749,1972,2048,1000
1784849917.8975,1742,1965,2047,1000
1784849917.8990,1743,1958,2046,1000
1784849917.9005,1754,1967,2045,1000
1784849917.9025,1754,1966,2044,1000
1784849917.9046,1744,1971,2044,1000
1784849917.9066,1750,1966,2043,1000
1784849917.9087,1755,1970,2042,1000
1784849917.9108,1766,1967,2041,1000
1784849917.9129,1750,1963,2040,1000
1784849917.9150,1744,1959,2039,1000
1784849917.9171,1762,1969,2038,1000
1784849917.9192,1762,1958,2037,1000
1784849917.9211,1745,1959,2036,1000
1784849917.9230,1747,1959,2036,1000
1784849917.9249,1750,1953,2035,1000
1784849917.9270,1763,1960,2034,1000
1784849917.9291,1746,1948,2033,1000
1784849917.9311,1754,1955,2032,1000
1784849917.9333,1756,1955,2031,1000
1784849917.9354,1769,1950,2030,1000
1784849917.9375,1783,1951,2029,1000
1784849917.9394,1745,1954,2028,1000
1784849917.9413,1756,1951,2027,1000
1784849917.9432,1771,1952,2026,1000
1784849917.9454,1748,1951,2026,1000
1784849917.9476,1750,1955,2025,1000
1784849917.9497,1741,1949,2024,1000
1784849917.9518,1755,1951,2023,1000
1784849917.9540,1752,1952,2022,1000
1784849917.9561,1746,1944,2021,1000
1784849917.9579,1750,1948,2020,1000
1784849917.9597,1758,1945,2020,1000
1784849917.9615,1764,1944,2019,1000
1784849917.9636,1745,1940,2018,1000
1784849917.9657,1746,1944,2017,1000
1784849917.9679,1768,1946,2016,1000
1784849917.9698,1761,1938,2015,1000
1784849917.9718,1756,1946,2014,1000
1784849917.9737,1750,1943,2014,1000
1784849917.9790,1759,1946,2013,1000
1784849917.9793,1761,1947,2012,1000
1784849917.9795,1736,1939,2011,1000
1784849917.9797,1747,1937,2010,1000
1784849917.9819,1753,1943,2009,1000
1784849917.9841,1756,1937,2009,1000
1784849917.9862,1744,1933,2008,1000
1784849917.9882,1763,1933,2007,1000
1784849917.9902,1761,1937,2006,1000
1784849917.9922,1765,1932,2005,1000
1784849917.9943,1766,1931,2004,1000
1784849917.9963,1754,1937,2004,1000
1784849917.9983,1749,1935,2003,1000
1784849918.0003,1756,1937,2002,1000
1784849918.0024,1758,1906,2001,1000
1784849918.0044,1744,1933,2000,1000
1784849918.0064,1747,1932,1999,1000
1784849918.0085,1759,1935,1999,1000
1784849918.0105,1767,1925,1998,1000
1784849918.0125,1762,1932,1997,1000
1784849918.0146,1762,1928,1996,1000
1784849918.0166,1750,1932,1995,1000
1784849918.0186,1759,1932,1995,1000
1784849918.0207,1771,1926,1994,1000
1784849918.0227,1744,1928,1993,1000
1784849918.0247,1777,1920,1992,1000
1784849918.0267,1757,1924,1991,1000
1784849918.0288,1748,1917,1990,1000
1784849918.0308,1752,1927,1990,1000
1784849918.0329,1753,1918,1989,1000
1784849918.0350,1763,1925,1988,1000
1784849918.0373,1758,1931,1987,1000
1784849918.0395,1742,1918,1987,1000
1784849918.0418,1755,1933,1986,1000
1784849918.0436,1754,1914,1985,1000
1784849918.0454,1754,1922,1984,1000
1784849918.0472,1740,1922,1984,1000
1784849918.0536,1757,1916,1983,1000
1784849918.0599,1766,1916,1982,1000
1784849918.0663,1760,1920,1981,1000
1784849918.0665,1745,1918,1981,1000
1784849918.0667,1759,1914,1980,1000
1784849918.0669,1757,1911,1979,1000
1784849918.0671,1760,1917,1978,1000
1784849918.0673,1754,1917,1977,1000
1784849918.0676,1739,1908,1977,1000
1784849918.0688,1749,1914,1976,1000
1784849918.0700,1774,1914,1975,1000
1784849918.0712,1752,1913,1974,1000
1784849918.0738,1746,1914,1974,1000
1784849918.0764,1760,1901,1973,1000
1784849918.0790,1763,1913,1972,1000
1784849918.0818,1753,1914,1971,1000
1784849918.0846,1744,1912,1971,1000
1784849918.0874,1754,1912,1970,1000
1784849918.0882,1754,1908,1969,1000
1784849918.0889,1754,1908,1968,1000
1784849918.0897,1740,1909,1968,1000
1784849918.0918,1758,1913,1967,1000
1784849918.0940,1765,1910,1966,1000
1784849918.0961,1757,1907,1966,1000
1784849918.0983,1763,1905,1965,1000
1784849918.1005,1750,1908,1964,1000
1784849918.1028,1752,1908,1964,1000
1784849918.1075,1762,1902,1963,1000
1784849918.1080,1736,1906,1962,1000
1784849918.1086,1742,1904,1961,1000
1784849918.1091,1764,1900,1961,1000
1784849918.1111,1758,1905,1960,1000
1784849918.1131,1740,1905,1959,1000
1784849918.1151,1745,1904,1959,1000
1784849918.1169,1764,1903,1958,1000
1784849918.1188,1759,1907,1957,1000
1784849918.1206,1745,1897,1957,1000
1784849918.1271,1738,1898,1956,1000
1784849918.1335,1753,1899,1955,1000
1784849918.1400,1757,1897,1955,1000
1784849918.1401,1751,1903,1954,1000
1784849918.1403,1747,1879,1953,1000
1784849918.1404,1755,1895,1952,1000
1784849918.1405,1750,1903,1952,1000
1784849918.1407,1753,1901,1951,1000
1784849918.1408,1750,1899,1950,1000
1784849918.1420,1751,1900,1950,1000
1784849918.1433,1758,1899,1949,1000
1784849918.1445,1749,1894,1949,1000
1784849918.1492,1744,1894,1948,1000
1784849918.1539,1740,1883,1947,1000
1784849918.1586,1762,1894,1946,1000
1784849918.1633,1758,1900,1946,1000
1784849918.1680,1751,1892,1945,1000
1784849918.1727,1752,1894,1945,1000
1784849918.1733,1764,1887,1944,1000
1784849918.1739,1759,1886,1943,1000
1784849918.1745,1744,1899,1943,1000
1784849918.1751,1747,1892,1942,1000
1784849918.1757,1757,1888,1941,1000
1784849918.1764,1765,1888,1941,1000
1784849918.1768,1744,1894,1940,1000
1784849918.1772,1750,1894,1939,1000
1784849918.1776,1758,1891,1939,1000
1784849918.1790,1766,1889,1938,1000
1784849918.1804,1747,1884,1938,1000
1784849918.1817,1737,1886,1937,1000
1784849918.1860,1747,1890,1936,1000
1784849918.1903,1752,1884,1936,1000
1784849918.1945,1746,1883,1935,1000
1784849918.1949,1722,1888,1934,1000
1784849918.1953,1749,1886,1934,1000
1784849918.1956,1762,1889,1933,1000
1784849918.1968,1747,1881,1933,1000
1784849918.1980,1746,1884,1932,1000
1784849918.1992,1753,1884,1931,1000
1784849918.2016,1753,1882,1931,1000
1784849918.2039,1755,1890,1930,1000
1784849918.2063,1742,1880,1930,1000
1784849918.2084,1744,1878,1929,1000
1784849918.2105,1781,1878,1928,1000
1784849918.2127,1771,1877,1928,1000
1784849918.2154,1748,1881,1927,1000
1784849918.2180,1746,1882,1927,1000
1784849918.2207,1757,1884,1926,1000
1784849918.2224,1762,1885,1926,1000
1784849918.2241,1747,1882,1925,1000
1784849918.2258,1751,1880,1924,1000
1784849918.2286,1756,1878,1924,1000
1784849918.2314,1751,1874,1923,1000
1784849918.2341,1770,1872,1923,1000
1784849918.2351,1753,1877,1922,1000
1784849918.2353,1760,1872,1921,1000
1784849918.2355,1756,1880,1921,1000
1784849918.2357,1755,1872,1920,1000
1784849918.2384,1745,1882,1920,1000
1784849918.2410,1746,1877,1919,1000
1784849918.2436,1754,1870,1919,1000
1784849918.2458,1753,1875,1918,1000
1784849918.2479,1736,1874,1917,1000
1784849918.2501,1745,1875,1917,1000
1784849918.2515,1771,1874,1916,1000
1784849918.2529,1760,1872,1916,1000
1784849918.2544,1753,1874,1915,1000
1784849918.2564,1744,1876,1915,1000
1784849918.2585,1775,1876,1914,1000
1784849918.2605,1757,1872,1914,1000
1784849918.2630,1746,1865,1913,1000
1784849918.2656,1744,1878,1913,1000
1784849918.2681,1776,1870,1912,1000
1784849918.2696,1745,1869,1911,1000
1784849918.2712,1746,1865,1911,1000
1784849918.2727,1744,1868,1910,1000
1784849918.2748,1765,1868,1910,1000
1784849918.2770,1754,1861,1909,1000
1784849918.2791,1746,1865,1909,1000
1784849918.2809,1744,1863,1908,1000
1784849918.2828,1747,1871,1908,1000
1784849918.2846,1755,1861,1907,1000
1784849918.2868,1743,1865,1906,1000
1784849918.2890,1728,1864,1906,1000
1784849918.2912,1753,1863,1905,1000
1784849918.2932,1765,1866,1905,1000
1784849918.2952,1772,1867,1904,1000
1784849918.2972,1750,1863,1904,1000
1784849918.2992,1744,1865,1903,1000
1784849918.3012,1757,1862,1903,1000
1784849918.3032,1759,1864,1902,1000
1784849918.3057,1740,1859,1902,1000
1784849918.3082,1747,1863,1901,1000
1784849918.3107,1762,1861,1901,1000
1784849918.3147,1776,1856,1900,1000
1784849918.3186,1758,1862,1900,1000
1784849918.3225,1738,1862,1899,1000
1784849918.3228,1751,1863,1899,1000
1784849918.3230,1759,1868,1898,1000
1784849918.3233,1736,1859,1898,1000
1784849918.3247,1743,1861,1897,1000
1784849918.3261,1748,1857,1897,1000
1784849918.3275,1772,1823,1896,1000
1784849918.3308,1752,1863,1895,1000
1784849918.3340,1744,1861,1895,1000
1784849918.3372,1754,1858,1894,1000
1784849918.3382,1762,1856,1894,1000
1784849918.3391,1753,1860,1893,1000
1784849918.3400,1745,1859,1893,1000
1784849918.3430,1760,1857,1892,1000
1784849918.3459,1772,1862,1892,1000
1784849918.3489,1739,1848,1891,1000
1784849918.3520,1743,1852,1891,1000
1784849918.3552,1737,1855,1890,1000
1784849918.3584,1768,1858,1890,1000
1784849918.3588,1762,1858,1890,1000
1784849918.3592,1750,1854,1889,1000
1784849918.3596,1740,1855,1889,1000
1784849918.3631,1749,1858,1888,1000
1784849918.3633,1756,1849,1888,1000
1784849918.3636,1748,1855,1887,1000
1784849918.3639,1750,1854,1887,1000
1784849918.3664,1765,1852,1886,1000
1784849918.3690,1764,1850,1886,1000
1784849918.3716,1741,1849,1885,1000
1784849918.3734,1738,1848,1885,1000
1784849918.3752,1753,1845,1884,1000
1784849918.3771,1740,1907,1884,1000
1784849918.3791,1750,1848,1884,1000
1784849918.3812,1746,1845,1883,1000
1784849918.3832,1749,1853,1883,1000
1784849918.3849,1767,1851,1883,1000
1784849918.3867,1758,1847,1882,1000
1784849918.3884,1756,1852,1882,1000
1784849918.3904,1772,1853,1881,1000
1784849918.3924,1778,1853,1881,1000
1784849918.3944,1755,1841,1880,1000
1784849918.3964,1754,1847,1880,1000
1784849918.3985,1751,1855,1880,1000
1784849918.4005,1761,1849,1879,1000
1784849918.4026,1750,1845,1879,1000
1784849918.4047,1749,1848,1878,1000
1784849918.4069,1753,1845,1878,1000
1784849918.4089,1755,1847,1877,1000
1784849918.4109,1760,1836,1877,1000
1784849918.4129,1751,1843,1876,1000
1784849918.4148,1744,1841,1876,1000
1784849918.4167,1754,1845,1875,1000
1784849918.4187,1757,1843,1875,1000
1784849918.4208,1747,1841,1875,1000
1784849918.4229,1742,1846,1874,1000
1784849918.4250,1749,1842,1874,1000
1784849918.4271,1766,1841,1873,1000
1784849918.4292,1751,1834,1873,1000
1784849918.4313,1743,1835,1872,1000
1784849918.4332,1753,1841,1872,1000
1784849918.4351,1769,1845,1871,1000
1784849918.4370,1736,1840,1871,1000
1784849918.4391,1741,1840,1871,1000
1784849918.4412,1746,1840,1870,1000
1784849918.4433,1752,1834,1870,1000
1784849918.4454,1745,1834,1869,1000
1784849918.4475,1744,1845,1869,1000
1784849918.4497,1751,1838,1868,1000
1784849918.4515,1755,1839,1868,1000
1784849918.4534,1763,1837,1868,1000
1784849918.4552,1735,1839,1867,1000
1784849918.4573,1745,1835,1867,1000
1784849918.4594,1756,1850,1866,1000
1784849918.4615,1757,1837,1866,1000
1784849918.4636,1744,1834,1866,1000
1784849918.4656,1740,1838,1865,1000
1784849918.4676,1746,1832,1865,1000
1784849918.4696,1775,1835,1864,1000
1784849918.4716,1742,1838,1864,1000
1784849918.4736,1749,1834,1863,1000
1784849918.4764,1758,1836,1863,1000
1784849918.4791,1764,1839,1863,1000
1784849918.4818,1769,1832,1862,1000
1784849918.4845,1757,1836,1862,1000
1784849918.4872,1734,1834,1861,1000
1784849918.4900,1747,1839,1861,1000
1784849918.4927,1743,1831,1861,1000
1784849918.4954,1767,1835,1860,1000
1784849918.4981,1757,1838,1860,1000
1784849918.5009,1770,1834,1860,1000
1784849918.5012,1758,1831,1859,1000
1784849918.5014,1754,1831,1859,1000
1784849918.5017,1744,1835,1858,1000
1784849918.5028,1757,1833,1858,1000
1784849918.5039,1761,1837,1858,1000
1784849918.5051,1747,1828,1857,1000
1784849918.5068,1743,1840,1857,1000
1784849918.5086,1753,1838,1857,1000
1784849918.5104,1781,1836,1856,1000
1784849918.5137,1754,1833,1856,1000
1784849918.5170,1748,1833,1856,1000
1784849918.5204,1757,1831,1855,1000
1784849918.5211,1764,1834,1855,1000
1784849918.5218,1760,1826,1855,1000
1784849918.5225,1738,1826,1854,1000
1784849918.5245,1748,1839,1854,1000
1784849918.5265,1763,1818,1853,1000
1784849918.5285,1750,1833,1853,1000
1784849918.5349,1748,1832,1853,1000
1784849918.5413,1759,1834,1852,1000
1784849918.5477,1774,1826,1852,1000
1784849918.5481,1755,1799,1851,1000
1784849918.5485,1739,1828,1851,1000
1784849918.5490,1762,1824,1851,1000
1784849918.5494,1747,1827,1850,1000
1784849918.5498,1747,1833,1850,1000
1784849918.5503,1741,1831,1850,1000
1784849918.5514,1748,1831,1849,1000
1784849918.5525,1767,1832,1849,1000
1784849918.5536,1758,1829,1849,1000
1784849918.5556,1763,1823,1848,1000
1784849918.5575,1766,1825,1848,1000
1784849918.5594,1753,1827,1848,1000
1784849918.5618,1752,1825,1847,1000
1784849918.5641,1763,1824,1847,1000
1784849918.5665,1739,1818,1847,1000
1784849918.5700,1753,1827,1846,1000
1784849918.5735,1764,1823,1846,1000
1784849918.5770,1765,1820,1846,1000
1784849918.5773,1749,1818,1845,1000
1784849918.5775,1761,1820,1845,1000
1784849918.5777,1764,1821,1844,1000
1784849918.5795,1761,1829,1844,1000
1784849918.5814,1758,1817,1844,1000
1784849918.5832,1749,1823,1843,1000
1784849918.5858,1764,1819,1843,1000
1784849918.5884,1736,1814,1843,1000
1784849918.5910,1738,1818,1842,1000
1784849918.5927,1763,1821,1842,1000
1784849918.5945,1773,1819,1842,1000
1784849918.5963,1760,1825,1841,1000
1784849918.5982,1746,1818,1841,1000
1784849918.6002,1747,1814,1841,1000
1784849918.6022,1760,1819,1840,1000
1784849918.6042,1769,1821,1840,1000
1784849918.6063,1743,1824,1840,1000
1784849918.6083,1751,1821,1839,1000
1784849918.6105,1774,1822,1839,1000
1784849918.6126,1606,1825,1839,1000
1784849918.6148,1768,1819,1838,1000
1784849918.6169,1759,1821,1838,1000
1784849918.6191,1766,1824,1838,1000
1784849918.6212,1773,1817,1838,1000
1784849918.6233,1764,1815,1837,1000
1784849918.6243,1754,1821,1837,1000
1784849918.6253,1765,1820,1837,1000
1784849918.6263,1775,1823,1836,1000
1784849918.6289,1778,1816,1836,1000
1784849918.6316,1741,1821,1836,1000
1784849918.6343,1759,1817,1835,1000
1784849918.6370,1766,1815,1835,1000
1784849918.6396,1766,1821,1835,1000
1784849918.6423,1754,1815,1835,1000
1784849918.6450,1751,1815,1834,1000
1784849918.6477,1773,1813,1834,1000
1784849918.6503,1765,1818,1834,1000
1784849918.6510,1746,1817,1833,1000
1784849918.6517,1735,1809,1833,1000
1784849918.6525,1767,1818,1833,1000
1784849918.6542,1765,1816,1832,1000
1784849918.6560,1746,1812,1832,1000
1784849918.6578,1757,1809,1832,1000
1784849918.6602,1788,1822,1831,1000
1784849918.6627,1776,1814,1831,1000
1784849918.6651,1730,1815,1831,1000
1784849918.6673,1739,1807,1831,1000
1784849918.6694,1748,1810,1830,1000
1784849918.6715,1757,1784,1830,1000
1784849918.6728,1767,1815,1829,1000
1784849918.6742,1758,1822,1829,1000
1784849918.6755,1761,1814,1829,1000
1784849918.6777,1771,1812,1829,1000
1784849918.6799,1754,1814,1828,1000
1784849918.6820,1755,1813,1828,1000
1784849918.6855,1749,1812,1828,1000
1784849918.6889,1765,1810,1827,1000
1784849918.6924,1746,1812,1827,1000
1784849918.6927,1752,1812,1827,1000
1784849918.6931,1762,1815,1827,1000
1784849918.6935,1767,1814,1826,1000
1784849918.6958,1764,1817,1826,1000
1784849918.6981,1765,1809,1826,1000
1784849918.7003,1743,1816,1826,1000
1784849918.7020,1757,1809,1825,1000
1784849918.7037,1761,1807,1825,1000
1784849918.7055,1746,1811,1825,1000
1784849918.7083,1750,1811,1825,1000
1784849918.7112,1767,1821,1824,1000
1784849918.7141,1775,1810,1824,1000
1784849918.7153,1761,1808,1824,1000
1784849918.7165,1754,1814,1824,1000
1784849918.7176,1752,1806,1823,1000
1784849918.7215,1778,1803,1823,1000
1784849918.7253,1761,1809,1823,1000
1784849918.7291,1743,1806,1823,1000
1784849918.7294,1742,1802,1822,1000
1784849918.7297,1755,1809,1822,1000
1784849918.7300,1748,1813,1822,1000
1784849918.7336,1759,1811,1821,1000
1784849918.7371,1775,1809,1821,1000
1784849918.7407,1767,1807,1821,1000
1784849918.7410,1756,1803,1821,1000
1784849918.7412,1742,1809,1820,1000
1784849918.7414,1752,1802,1820,1000
1784849918.7473,1760,1801,1820,1000
1784849918.7478,1744,1807,1820,1000
1784849918.7484,1743,1807,1819,1000
1784849918.7489,1745,1803,1819,1000
1784849918.7511,1777,1807,1819,1000
1784849918.7532,1772,1808,1819,1000
1784849918.7554,1749,1810,1818,1000
1784849918.7578,1756,1806,1818,1000
1784849918.7603,1759,1804,1818,1000
1784849918.7627,1773,1804,1818,1000
1784849918.7643,1752,1803,1817,1000
1784849918.7659,1745,1805,1817,1000
1784849918.7676,1747,1804,1817,1000
1784849918.7694,1773,1813,1817,1000
1784849918.7712,1768,1811,1816,1000
1784849918.7731,1743,1807,1816,1000
1784849918.7752,1756,1804,1816,1000
1784849918.7774,1768,1807,1816,1000
1784849918.7795,1762,1803,1816,1000
1784849918.7814,1742,1803,1815,1000
1784849918.7833,1756,1805,1815,1000
1784849918.7851,1754,1802,1815,1000
1784849918.7878,1762,1806,1815,1000
1784849918.7905,1747,1805,1814,1000
1784849918.7932,1753,1805,1814,1000
1784849918.7950,1770,1801,1814,1000
1784849918.7968,1760,1801,1814,1000
1784849918.7986,1756,1795,1813,1000
1784849918.8004,1750,1799,1813,1000
1784849918.8022,1768,1791,1813,1000
1784849918.8040,1757,1800,1813,1000
1784849918.8061,1742,1804,1812,1000
1784849918.8081,1741,1805,1812,1000
1784849918.8102,1765,1803,1812,1000
1784849918.8131,1769,1796,1812,1000
1784849918.8160,1758,1799,1811,1000
1784849918.8189,1744,1800,1811,1000
1784849918.8198,1756,1799,1811,1000
1784849918.8206,1760,1802,1811,1000
1784849918.8214,1750,1815,1811,1000
1784849918.8234,1751,1804,1810,1000
1784849918.8255,1758,1798,1810,1000
1784849918.8275,1760,1802,1810,1000
1784849918.8301,1774,1801,1810,1000
1784849918.8328,1760,1800,1810,1000
1784849918.8354,1758,1806,1809,1000
1784849918.8373,1741,1804,1809,1000
1784849918.8391,1753,1793,1809,1000
1784849918.8410,1747,1787,1809,1000
1784849918.8430,1751,1798,1808,1000
1784849918.8451,1755,1800,1808,1000
1784849918.8471,1761,1801,1808,1000
1784849918.8491,1750,1804,1808,1000
1784849918.8511,1731,1796,1808,1000
1784849918.8531,1764,1797,1807,1000
1784849918.8548,1776,1803,1807,1000
1784849918.8564,1741,1799,1807,1000
1784849918.8580,1744,1799,1807,1000
1784849918.8603,1756,1803,1807,1000
1784849918.8625,1763,1800,1806,1000
1784849918.8648,1750,1801,1806,1000
1784849918.8669,1733,1798,1806,1000
1784849918.8689,1754,1799,1806,1000
1784849918.8709,1767,1792,1806,1000
1784849918.8759,1757,1796,1805,1000
1784849918.8761,1744,1798,1805,1000
1784849918.8764,1767,1796,1805,1000
1784849918.8766,1767,1799,1805,1000
1784849918.8785,1760,1794,1805,1000
1784849918.8803,1749,1796,1804,1000
1784849918.8822,1751,1797,1804,1000
1784849918.8842,1746,1803,1804,1000
1784849918.8862,1749,1787,1804,1000
1784849918.8883,1730,1798,1804,1000
1784849918.8903,1756,1793,1803,1000
1784849918.8923,1774,1789,1803,1000
1784849918.8942,1763,1795,1803,1000
1784849918.8963,1755,1797,1803,1000
1784849918.8983,1750,1800,1803,1000
1784849918.9004,1745,1792,1802,1000
1784849918.9024,1754,1798,1802,1000
1784849918.9044,1755,1805,1802,1000
1784849918.9065,1738,1797,1802,1000
1784849918.9085,1764,1798,1802,1000
1784849918.9105,1768,1796,1802,1000
1784849918.9125,1765,1794,1801,1000
1784849918.9145,1743,1795,1801,1000
1784849918.9166,1757,1794,1801,1000
1784849918.9187,1757,1791,1801,1000
1784849918.9241,1748,1799,1801,1000
1784849918.9295,1739,1794,1800,1000
1784849918.9349,1760,1795,1800,1000
1784849918.9368,1765,1794,1800,1000
1784849918.9386,1750,1793,1800,1000
1784849918.9404,1745,1797,1800,1000
1784849918.9407,1755,1799,1800,1000
1784849918.9409,1770,1795,1799,1000
1784849918.9411,1760,1796,1799,1000
1784849918.9417,1747,1801,1799,1000
1784849918.9423,1744,1794,1799,1000
1784849918.9429,1752,1790,1799,1000
1784849918.9450,1774,1796,1799,1000
1784849918.9471,1746,1792,1798,1000
1784849918.9491,1754,1791,1798,1000
1784849918.9512,1770,1790,1798,1000
1784849918.9532,1770,1788,1798,1000
1784849918.9553,1754,1792,1798,1000
1784849918.9574,1750,1788,1797,1000
1784849918.9595,1759,1787,1797,1000
1784849918.9616,1763,1794,1797,1000
1784849918.9635,1759,1787,1797,1000
1784849918.9653,1735,1793,1797,1000
1784849918.9672,1747,1797,1797,1000
1784849918.9693,1754,1790,1796,1000
1784849918.9714,1758,1789,1796,1000
1784849918.9734,1748,1788,1796,1000
1784849918.9759,1757,1792,1796,1000
1784849918.9784,1765,1789,1796,1000
1784849918.9809,1757,1787,1795,1000
1784849918.9824,1751,1791,1795,1000
1784849918.9839,1748,1792,1795,1000
1784849918.9855,1774,1793,1795,1000
1784849918.9877,1740,1794,1795,1000
1784849918.9899,1729,1793,1795,1000
1784849918.9921,1753,1792,1795,1000
1784849918.9941,1786,1792,1794,1000
1784849918.9962,1761,1792,1794,1000
1784849918.9983,1743,1790,1794,1000
1784849919.0043,1741,1785,1794,1000
1784849919.0045,1762,1789,1794,1000
1784849919.0048,1757,1788,1793,1000
1784849919.0050,1745,1794,1793,1000
1784849919.0084,1744,1791,1793,1000
1784849919.0118,1755,1787,1793,1000
1784849919.0152,1757,1786,1793,1000
1784849919.0177,1744,1792,1793,1000
1784849919.0201,1747,1802,1793,1000
1784849919.0226,1752,1791,1793,1000
1784849919.0228,1757,1789,1792,1000
1784849919.0231,1745,1789,1792,1000
1784849919.0233,1752,1790,1792,1000
1784849919.0249,1747,1790,1792,1000
1784849919.0266,1764,1785,1792,1000
1784849919.0283,1757,1788,1792,1000
1784849919.0304,1753,1781,1791,1000
1784849919.0325,1760,1784,1791,1000
1784849919.0346,1770,1785,1791,1000
1784849919.0365,1750,1791,1791,1000
1784849919.0384,1745,1792,1791,1000
1784849919.0403,1748,1793,1791,1000
1784849919.0425,1760,1793,1791,1000
1784849919.0448,1760,1792,1790,1000
1784849919.0470,1742,1786,1790,1000
1784849919.0489,1741,1787,1790,1000
1784849919.0508,1760,1782,1790,1000
1784849919.0527,1770,1830,1790,1000
1784849919.0547,1758,1788,1790,1000
1784849919.0567,1753,1788,1790,1000
1784849919.0586,1777,1828,1790,1000
1784849919.0609,1771,1788,1790,1000
1784849919.0631,1755,1785,1790,1000
1784849919.0653,1735,1783,1790,1000
1784849919.0672,1757,1785,1790,1000
1784849919.0690,1745,1783,1789,1000
1784849919.0709,1753,1789,1789,1000
1784849919.0731,1749,1785,1789,1000
1784849919.0753,1771,1787,1789,1000
1784849919.0775,1766,1788,1789,1000
1784849919.0794,1751,1788,1789,1000
1784849919.0813,1729,1791,1789,1000
1784849919.0833,1754,1784,1788,1000
1784849919.0854,1753,1766,1788,1000
1784849919.0876,1750,1777,1788,1000
1784849919.0897,1746,1787,1788,1000
1784849919.0925,1756,1784,1788,1000
1784849919.0952,1767,1789,1787,1000
1784849919.0980,1772,1786,1787,1000
1784849919.0996,1763,1780,1787,1000
1784849919.1012,1744,1790,1787,1000
1784849919.1028,1760,1787,1787,1000
1784849919.1045,1765,1789,1787,1000
1784849919.1061,1756,1781,1787,1000
1784849919.1077,1733,1789,1786,1000
1784849919.1097,1769,1791,1786,1000
1784849919.1117,1765,1793,1786,1000
1784849919.1137,1753,1784,1786,1000
1784849919.1157,1745,1770,1786,1000
1784849919.1177,1759,1783,1786,1000
1784849919.1197,1779,1783,1786,1000
1784849919.1217,1748,1779,1785,1000
1784849919.1237,1745,1786,1785,1000
1784849919.1257,1744,1785,1785,1000
1784849919.1311,1765,1787,1785,1000
1784849919.1314,1739,1783,1785,1000
1784849919.1316,1758,1786,1785,1000
1784849919.1319,1751,1785,1785,1000
1784849919.1339,1760,1783,1785,1000
1784849919.1360,1762,1780,1784,1000
1784849919.1381,1751,1781,1784,1000
1784849919.1402,1757,1781,1784,1000
1784849919.1422,1755,1783,1784,1000
1784849919.1443,1758,1780,1784,1000
1784849919.1466,1744,1786,1784,1000
1784849919.1489,1753,1785,1784,1000
1784849919.1512,1763,1783,1783,1000
1784849919.1530,1769,1784,1783,1000
1784849919.1548,1753,1786,1783,1000
1784849919.1565,1750,1780,1783,1000
1784849919.1585,1780,1781,1783,1000
1784849919.1604,1766,1780,1783,1000
1784849919.1624,1756,1783,1783,1000
1784849919.1647,1742,1776,1783,1000
1784849919.1670,1749,1780,1782,1000
1784849919.1692,1763,1778,1782,1000
1784849919.1710,1761,1776,1782,1000
1784849919.1728,1745,1781,1782,1000
1784849919.1746,1756,1785,1782,1000
1784849919.1784,1766,1777,1782,1000
1784849919.1821,1750,1782,1782,1000
1784849919.1859,1742,1780,1781,1000
1784849919.1861,1744,1777,1781,1000
1784849919.1864,1766,1781,1781,1000
1784849919.1866,1767,1780,1781,1000
1784849919.1887,1740,1779,1781,1000
1784849919.1908,1742,1788,1781,1000
1784849919.1930,1775,1784,1781,1000
1784849919.1950,1763,1764,1780,1000
1784849919.1970,1745,1781,1780,1000
1784849919.1990,1734,1784,1780,1000
1784849919.2010,1757,1781,1780,1000
1784849919.2029,1760,1783,1780,1000
1784849919.2049,1742,1779,1780,1000
1784849919.2070,1748,1785,1780,1000
1784849919.2090,1784,1793,1780,1000
1784849919.2111,1774,1780,1780,1000
1784849919.2132,1748,1783,1780,1000
1784849919.2153,1751,1787,1780,1000
1784849919.2174,1728,1779,1779,1000
1784849919.2193,1762,1779,1779,1000
1784849919.2213,1755,1781,1779,1000
1784849919.2232,1752,1778,1779,1000
1784849919.2254,1743,1812,1779,1000
1784849919.2275,1752,1777,1779,1000
1784849919.2297,1757,1776,1779,1000
1784849919.2317,1753,1778,1779,1000
1784849919.2338,1742,1781,1779,1000
1784849919.2358,1760,1777,1779,1000
1784849919.2377,1768,1779,1778,1000
1784849919.2396,1749,1781,1778,1000
1784849919.2415,1744,1782,1778,1000
1784849919.2439,1762,1779,1778,1000
1784849919.2462,1765,1778,1778,1000
1784849919.2486,1738,1778,1778,1000
1784849919.2504,1750,1777,1778,1000
1784849919.2522,1761,1779,1778,1000
1784849919.2539,1764,1771,1777,1000
1784849919.2633,1748,1785,1777,1000
1784849919.2645,1743,1779,1777,1000
1784849919.2658,1771,1785,1777,1000
1784849919.2670,1765,1784,1777,1000
1784849919.2677,1747,1781,1777,1000
1784849919.2684,1744,1737,1777,1000
1784849919.2690,1754,1776,1777,1000
1784849919.2700,1780,1780,1776,1000
1784849919.2710,1659,1781,1776,1000
1784849919.2720,1744,1784,1776,1000
1784849919.2741,1750,1779,1776,1000
1784849919.2761,1761,1780,1776,1000
1784849919.2782,1752,1742,1776,1000
1784849919.2802,1742,1775,1776,1000
1784849919.2823,1751,1777,1775,1000
1784849919.2844,1763,1775,1775,1000
1784849919.2864,1752,1782,1775,1000
1784849919.2884,1754,1778,1775,1000
1784849919.2905,1762,1778,1775,1000
1784849919.2924,1770,1776,1775,1000
1784849919.2944,1733,1778,1775,1000
1784849919.2963,1758,1782,1775,1000
1784849919.2984,1742,1784,1775,1000
1784849919.3006,1762,1780,1775,1000
1784849919.3027,1757,1767,1775,1000
1784849919.3047,1753,1780,1774,1000
1784849919.3068,1744,1782,1774,1000
1784849919.3088,1764,1781,1774,1000
1784849919.3108,1766,1789,1774,1000
1784849919.3127,1737,1786,1774,1000
1784849919.3146,1644,1783,1774,1000
1784849919.3167,1760,1780,1774,1000
1784849919.3188,1760,1779,1774,1000
1784849919.3209,1746,1828,1775,1000
1784849919.3230,1740,1778,1775,1000
1784849919.3251,1753,1774,1774,1000
1784849919.3273,1751,1774,1774,1000
1784849919.3292,1761,1799,1774,1000
1784849919.3312,1756,1776,1774,1000
1784849919.3332,1754,1777,1774,1000
1784849919.3352,1763,1772,1774,1000
1784849919.3373,1758,1777,1774,1000
1784849919.3393,1746,1779,1774,1000
1784849919.3441,1747,1784,1774,1000
1784849919.3488,1756,1781,1774,1000
1784849919.3536,1754,1776,1774,1000
1784849919.3540,1750,1780,1774,1000
1784849919.3544,1762,1777,1774,1000
1784849919.3549,1763,1772,1773,1000
1784849919.3558,1762,1779,1773,1000
1784849919.3567,1745,1774,1773,1000
1784849919.3576,1745,1783,1773,1000
1784849919.3597,1760,1779,1773,1000
1784849919.3618,1764,1780,1773,1000
1784849919.3639,1751,1778,1773,1000
1784849919.3659,1742,1776,1773,1000
1784849919.3678,1752,1775,1773,1000
1784849919.3697,1766,1781,1773,1000
1784849919.3717,1772,1779,1773,1000
1784849919.3737,1742,1779,1773,1000
1784849919.3756,1757,1774,1773,1000
1784849919.3776,1762,1775,1772,1000
1784849919.3797,1761,1775,1772,1000
1784849919.3817,1742,1781,1772,1000
1784849919.3871,1744,1775,1772,1000
1784849919.3874,1761,1775,1772,1000
1784849919.3876,1751,1775,1772,1000
1784849919.3879,1738,1776,1772,1000
1784849919.3901,1751,1776,1772,1000
1784849919.3924,1752,1776,1772,1000
1784849919.3946,1744,1769,1772,1000
1784849919.3965,1741,1783,1772,1000
1784849919.3984,1747,1775,1772,1000
1784849919.4003,1763,1777,1772,1000
1784849919.4024,1749,1774,1771,1000
1784849919.4045,1743,1777,1771,1000
1784849919.4066,1752,1776,1771,1000
1784849919.4085,1761,1775,1771,1000
1784849919.4105,1752,1789,1771,1000
1784849919.4124,1775,1777,1771,1000
1784849919.4144,1748,1781,1771,1000
1784849919.4164,1760,1777,1771,1000
1784849919.4184,1771,1777,1771,1000
1784849919.4204,1777,1770,1771,1000
1784849919.4225,1746,1769,1771,1000
1784849919.4245,1763,1776,1771,1000
1784849919.4281,1769,1774,1771,1000
1784849919.4318,1761,1780,1771,1000
1784849919.4354,1753,1771,1770,1000
1784849919.4359,1747,1790,1771,1000
1784849919.4363,1768,1759,1770,1000
1784849919.4367,1760,1761,1770,1000
1784849919.4388,1753,1774,1770,1000
1784849919.4408,1734,1775,1770,1000
1784849919.4428,1757,1774,1770,1000
1784849919.4449,1781,1776,1770,1000
1784849919.4469,1745,1778,1770,1000
1784849919.4490,1741,1768,1770,1000
1784849919.4510,1763,1776,1770,1000
1784849919.4529,1762,1774,1769,1000
1784849919.4549,1749,1769,1769,1000
1784849919.4570,1752,1775,1769,1000
1784849919.4590,1774,1773,1769,1000
1784849919.4610,1755,1776,1769,1000
1784849919.4632,1761,1777,1769,1000
1784849919.4655,1744,1775,1769,1000
1784849919.4677,1747,1776,1769,1000
1784849919.4697,1769,1774,1769,1000
1784849919.4717,1751,1777,1769,1000
1784849919.4737,1734,1777,1769,1000
1784849919.4756,1755,1775,1769,1000
1784849919.4774,1776,1775,1769,1000
1784849919.4793,1751,1776,1769,1000
1784849919.4814,1743,1777,1769,1000
1784849919.4836,1752,1773,1769,1000
1784849919.4858,1774,1774,1768,1000
1784849919.4878,1759,1778,1768,1000
1784849919.4898,1737,1767,1768,1000
1784849919.4918,1746,1773,1768,1000
1784849919.4938,1761,1773,1768,1000
1784849919.4957,1763,1770,1768,1000
1784849919.4977,1750,1777,1768,1000
1784849919.4999,1743,1777,1768,1000
1784849919.5021,1756,1774,1768,1000
1784849919.5043,1769,1775,1768,1000
1784849919.5063,1743,1770,1768,1000
1784849919.5083,1746,1774,1768,1000
1784849919.5103,1744,1760,1768,1000
1784849919.5123,1762,1773,1767,1000
1784849919.5142,1755,1777,1767,1000
1784849919.5162,1746,1776,1767,1000
1784849919.5182,1749,1747,1767,1000
1784849919.5196,1762,1774,1767,1000
1784849919.5210,1765,1771,1767,1000
1784849919.5223,1739,1774,1767,1000
1784849919.5243,1726,1772,1767,1000
1784849919.5262,1779,1771,1767,1000
1784849919.5282,1743,1775,1767,1000
1784849919.5302,1747,1776,1767,1000
1784849919.5322,1750,1770,1767,1000
1784849919.5342,1777,1740,1766,1000
1784849919.5363,1764,1774,1766,1000
1784849919.5384,1743,1770,1766,1000
1784849919.5405,1745,1767,1766,1000
1784849919.5426,1764,1774,1766,1000
1784849919.5447,1786,1779,1766,1000
1784849919.5467,1742,1765,1766,1000
1784849919.5487,1775,1770,1766,1000
1784849919.5506,1769,1773,1766,1000
1784849919.5525,1747,1770,1766,1000
1784849919.5546,1771,1768,1765,1000
1784849919.5567,1744,1762,1765,1000
1784849919.5588,1754,1768,1765,1000
1784849919.5608,1759,1774,1765,1000
1784849919.5627,1748,1774,1765,1000
1784849919.5647,1742,1772,1765,1000
1784849919.5668,1748,1776,1765,1000
1784849919.5689,1760,1774,1765,1000
1784849919.5710,1751,1767,1765,1000
1784849919.5732,1747,1775,1765,1000
1784849919.5754,1753,1776,1765,1000
1784849919.5776,1761,1770,1765,1000
1784849919.5796,1755,1761,1765,1000
1784849919.5816,1739,1768,1765,1000
1784849919.5835,1743,1775,1765,1000
1784849919.5853,1761,1771,1765,1000
1784849919.5872,1750,1770,1764,1000
1784849919.5890,1729,1768,1764,1000
1784849919.5911,1747,1766,1764,1000
1784849919.5932,1762,1769,1764,1000
1784849919.5953,1764,1769,1764,1000
1784849919.5973,1748,1767,1764,1000
1784849919.5993,1744,1773,1764,1000
1784849919.6013,1754,1766,1764,1000
1784849919.6040,1764,1745,1764,1000
1784849919.6068,1747,1758,1763,1000
1784849919.6095,1742,1774,1763,1000
1784849919.6122,1768,1770,1763,1000
1784849919.6149,1760,1768,1763,1000
1784849919.6176,1754,1767,1763,1000
1784849919.6183,1751,1773,1763,1000
1784849919.6190,1750,1772,1763,1000
1784849919.6196,1757,1772,1763,1000
1784849919.6216,1752,1773,1763,1000
1784849919.6235,1749,1771,1763,1000
1784849919.6255,1749,1766,1763,1000
1784849919.6276,1760,1764,1763,1000
1784849919.6296,1750,1764,1763,1000
1784849919.6317,1727,1768,1763,1000
1784849919.6338,1750,1766,1763,1000
1784849919.6359,1757,1774,1763,1000
1784849919.6380,1760,1772,1763,1000
1784849919.6430,1756,1772,1763,1000
1784849919.6434,1751,1772,1762,1000
1784849919.6437,1762,1750,1762,1000
1784849919.6440,1759,1767,1762,1000
1784849919.6461,1752,1770,1762,1000
1784849919.6482,1749,1773,1762,1000
1784849919.6502,1745,1766,1762,1000
1784849919.6523,1661,1757,1762,1000
1784849919.6544,1748,1770,1762,1000
1784849919.6565,1740,1768,1762,1000
1784849919.6584,1753,1771,1762,1000
1784849919.6604,1765,1764,1762,1000
1784849919.6623,1747,1769,1762,1000
1784849919.6644,1748,1762,1761,1000
1784849919.6664,1739,1761,1761,1000
1784849919.6685,1750,1772,1761,1000
1784849919.6706,1760,1772,1761,1000
1784849919.6727,1751,1763,1761,1000
1784849919.6748,1761,1819,1762,1000
1784849919.6770,1769,1768,1762,1000
1784849919.6791,1759,1773,1762,1000
1784849919.6813,1743,1766,1762,1000
1784849919.6832,1739,1764,1761,1000
1784849919.6850,1753,1768,1761,1000
1784849919.6869,1752,1768,1761,1000
1784849919.6889,1738,1745,1761,1000
1784849919.6909,1634,1770,1761,1000
1784849919.6929,1766,1770,1761,1000
1784849919.6992,1763,1769,1761,1000
1784849919.7055,1750,1775,1761,1000
1784849919.7118,1752,1767,1761,1000
1784849919.7121,1755,1751,1761,1000
1784849919.7124,1763,1775,1761,1000
1784849919.7127,1751,1768,1761,1000
1784849919.7130,1743,1769,1761,1000
1784849919.7134,1757,1757,1760,1000
1784849919.7137,1750,1773,1760,1000
1784849919.7148,1728,1772,1760,1000
1784849919.7158,1753,1770,1760,1000
1784849919.7169,1755,1769,1760,1000
1784849919.7191,1755,1765,1760,1000
1784849919.7212,1747,1775,1760,1000
1784849919.7233,1745,1776,1760,1000
1784849919.7253,1751,1770,1760,1000
1784849919.7273,1759,1771,1760,1000
1784849919.7293,1753,1765,1760,1000
1784849919.7313,1752,1764,1760,1000
1784849919.7333,1750,1774,1760,1000
1784849919.7352,1757,1769,1760,1000
1784849919.7374,1759,1764,1760,1000
1784849919.7395,1748,1761,1760,1000
1784849919.7417,1745,1762,1760,1000
1784849919.7437,1779,1767,1760,1000
1784849919.7457,1765,1764,1760,1000
1784849919.7476,1744,1767,1760,1000
1784849919.7496,1771,1774,1760,1000
1784849919.7516,1742,1776,1760,1000
1784849919.7536,1761,1776,1760,1000
1784849919.7558,1747,1773,1760,1000
1784849919.7579,1744,1772,1760,1000
1784849919.7600,1753,1772,1760,1000
1784849919.7620,1781,1738,1759,1000
1784849919.7639,1758,1772,1759,1000
1784849919.7659,1757,1770,1759,1000
1784849919.7711,1744,1771,1759,1000
1784849919.7713,1770,1775,1759,1000
1784849919.7716,1724,1771,1759,1000
1784849919.7719,1744,1773,1759,1000
1784849919.7740,1756,1776,1760,1000
1784849919.7761,1767,1765,1759,1000
1784849919.7781,1754,1773,1759,1000
1784849919.7803,1755,1769,1759,1000
1784849919.7825,1746,1774,1759,1000
1784849919.7846,1762,1768,1759,1000
1784849919.7865,1736,1763,1759,1000
1784849919.7884,1734,1773,1759,1000
1784849919.7903,1738,1771,1759,1000
1784849919.7931,1758,1774,1759,1000
1784849919.7958,1770,1767,1759,1000
1784849919.7986,1755,1769,1759,1000
1784849919.7998,1743,1739,1759,1000
1784849919.8010,1756,1771,1759,1000
1784849919.8023,1758,1777,1759,1000
1784849919.8043,1743,1777,1759,1000
1784849919.8064,1742,1775,1759,1000
1784849919.8084,1752,1776,1759,1000
1784849919.8105,1782,1772,1759,1000
1784849919.8125,1761,1784,1759,1000
1784849919.8146,1740,1813,1760,1000
1784849919.8166,1746,1778,1760,1000
1784849919.8186,1771,1784,1760,1000
1784849919.8206,1745,1781,1760,1000
1784849919.8226,1744,1782,1760,1000
1784849919.8246,1757,1780,1760,1000
1784849919.8267,1766,1804,1760,1000
1784849919.8287,1747,1780,1761,1000
1784849919.8308,1744,1788,1761,1000
1784849919.8329,1751,1784,1761,1000
1784849919.8349,1754,1786,1761,1000
1784849919.8369,1766,1783,1761,1000
1784849919.8389,1744,1778,1761,1000
1784849919.8409,1744,1778,1761,1000
1784849919.8430,1753,1783,1761,1000
1784849919.8451,1760,1778,1761,1000
1784849919.8471,1764,1776,1761,1000
1784849919.8492,1731,1780,1761,1000
1784849919.8513,1755,1781,1761,1000
1784849919.8555,1762,1782,1762,1000
1784849919.8597,1761,1787,1762,1000
1784849919.8640,1745,1776,1762,1000
1784849919.8642,1749,1784,1762,1000
1784849919.8644,1762,1777,1762,1000
1784849919.8646,1753,1782,1762,1000
1784849919.8662,1747,1778,1762,1000
1784849919.8678,1744,1782,1762,1000
1784849919.8694,1763,1783,1762,1000
1784849919.8714,1755,1783,1762,1000
1784849919.8734,1742,1779,1762,1000
1784849919.8754,1756,1782,1762,1000
1784849919.8774,1782,1775,1762,1000
1784849919.8794,1747,1784,1762,1000
1784849919.8814,1745,1780,1762,1000
1784849919.8836,1744,1784,1763,1000
1784849919.8858,1759,1778,1763,1000
1784849919.8879,1767,1771,1763,1000
1784849919.8898,1742,1786,1763,1000
1784849919.8916,1758,1785,1763,1000
1784849919.8934,1763,1783,1763,1000
1784849919.8990,1757,1781,1763,1000
1784849919.8992,1748,1783,1763,1000
1784849919.8993,1754,1779,1763,1000
1784849919.8995,1749,1779,1763,1000
1784849919.9017,1767,1780,1763,1000
1784849919.9040,1748,1786,1763,1000
1784849919.9062,1741,1780,1763,1000
1784849919.9082,1756,1782,1763,1000
1784849919.9102,1775,1778,1763,1000
1784849919.9121,1762,1785,1763,1000
1784849919.9142,1750,1804,1764,1000
1784849919.9162,1743,1780,1764,1000
1784849919.9183,1760,1787,1764,1000
1784849919.9203,1764,1776,1764,1000
1784849919.9223,1737,1784,1764,1000
1784849919.9243,1745,1781,1764,1000
1784849919.9263,1757,1777,1764,1000
1784849919.9284,1753,1787,1764,1000
1784849919.9304,1756,1783,1764,1000
1784849919.9324,1752,1784,1764,1000
1784849919.9344,1770,1788,1764,1000
1784849919.9365,1769,1785,1764,1000
1784849919.9385,1748,1780,1765,1000
1784849919.9406,1722,1785,1765,1000
1784849919.9427,1767,1780,1765,1000
1784849919.9447,1754,1778,1765,1000
1784849919.9467,1742,1782,1765,1000
1784849919.9487,1742,1775,1765,1000
1784849919.9508,1768,1775,1765,1000
1784849919.9529,1764,1783,1765,1000
1784849919.9549,1752,1780,1765,1000
1784849919.9569,1744,1782,1765,1000
1784849919.9589,1745,1780,1765,1000
1784849919.9609,1760,1782,1765,1000
1784849919.9630,1751,1778,1765,1000
1784849919.9651,1752,1778,1765,1000
1784849919.9672,1748,1781,1765,1000
1784849919.9691,1783,1783,1765,1000
1784849919.9710,1772,1772,1765,1000
1784849919.9729,1751,1779,1765,1000
1784849919.9750,1751,1777,1765,1000
1784849919.9771,1761,1780,1765,1000
1784849919.9792,1752,1818,1765,1000
1784849919.9812,1749,1783,1765,1000
1784849919.9833,1739,1775,1765,1000
1784849919.9854,1755,1779,1765,1000
1784849919.9875,1759,1789,1766,1000
1784849919.9896,1745,1780,1766,1000
1784849919.9917,1740,1779,1766,1000
1784849919.9936,1773,1778,1766,1000
1784849919.9955,1774,1781,1766,1000
1784849919.9975,1753,1779,1766,1000
1784849919.9995,1735,1788,1766,1000
1784849920.0015,1754,1775,1766,1000
1784849920.0035,1753,1778,1766,1000
1784849920.0055,1745,1779,1766,1000
1784849920.0075,1741,1778,1766,1000
1784849920.0095,1749,1779,1766,1000
1784849920.0116,1746,1780,1766,1000
1784849920.0136,1757,1777,1766,1000
1784849920.0157,1748,1774,1766,1000
1784849920.0178,1781,1775,1766,1000
1784849920.0198,1765,1781,1766,1000
1784849920.0219,1749,1775,1766,1000
1784849920.0271,1743,1779,1766,1000
1784849920.0274,1755,1773,1766,1000
1784849920.0276,1758,1788,1766,1000
1784849920.0279,1770,1793,1766,1000
1784849920.0300,1745,1787,1766,1000
1784849920.0321,1758,1782,1766,1000
1784849920.0342,1762,1789,1766,1000
1784849920.0362,1762,1779,1766,1000
1784849920.0382,1742,1792,1766,1000
1784849920.0401,1746,1783,1766,1000
1784849920.0421,1748,1781,1766,1000
1784849920.0442,1761,1792,1766,1000
1784849920.0462,1748,1781,1767,1000
1784849920.0482,1749,1784,1767,1000
1784849920.0503,1754,1790,1767,1000
1784849920.0524,1762,1783,1767,1000
1784849920.0569,1759,1784,1767,1000
1784849920.0614,1745,1786,1767,1000
1784849920.0658,1752,1785,1767,1000
1784849920.0668,1768,1783,1767,1000
1784849920.0678,1757,1786,1767,1000
1784849920.0687,1742,1789,1767,1000
1784849920.0693,1742,1791,1767,1000
1784849920.0699,1746,1786,1767,1000
1784849920.0705,1763,1789,1767,1000
1784849920.0725,1753,1789,1767,1000
1784849920.0745,1758,1755,1767,1000
1784849920.0765,1764,1782,1767,1000
1784849920.0785,1757,1784,1767,1000
1784849920.0805,1769,1782,1767,1000
1784849920.0825,1731,1780,1767,1000
1784849920.0846,1762,1784,1767,1000
1784849920.0867,1761,1771,1767,1000
1784849920.0888,1750,1786,1767,1000
1784849920.0910,1752,1782,1767,1000
1784849920.0932,1762,1770,1767,1000
1784849920.0953,1764,1782,1767,1000
1784849920.0972,1745,1779,1767,1000
1784849920.0990,1754,1783,1767,1000
1784849920.1008,1747,1781,1767,1000
1784849920.1029,1764,1782,1767,1000
1784849920.1050,1744,1781,1767,1000
1784849920.1071,1768,1788,1767,1000
1784849920.1091,1751,1783,1768,1000
1784849920.1111,1770,1789,1768,1000
1784849920.1130,1753,1782,1768,1000
1784849920.1151,1745,1780,1768,1000
1784849920.1171,1748,1774,1768,1000
1784849920.1191,1752,1783,1768,1000
1784849920.1212,1757,1785,1768,1000
1784849920.1233,1740,1782,1768,1000
1784849920.1254,1744,1786,1768,1000
1784849920.1289,1756,1782,1768,1000
1784849920.1325,1772,1780,1768,1000
1784849920.1361,1755,1781,1768,1000
1784849920.1373,1746,1780,1768,1000
1784849920.1386,1762,1783,1768,1000
1784849920.1398,1773,1784,1768,1000
1784849920.1410,1750,1789,1768,1000
1784849920.1423,1741,1784,1768,1000
1784849920.1435,1760,1781,1768,1000
1784849920.1455,1757,1777,1768,1000
1784849920.1475,1753,1780,1768,1000
1784849920.1495,1744,1781,1768,1000
1784849920.1550,1772,1787,1768,1000
1784849920.1552,1769,1784,1768,1000
1784849920.1554,1761,1780,1768,1000
1784849920.1556,1745,1780,1768,1000
1784849920.1577,1765,1786,1768,1000
1784849920.1598,1755,1784,1768,1000
1784849920.1619,1756,1781,1768,1000
1784849920.1640,1746,1779,1768,1000
1784849920.1661,1744,1780,1768,1000
1784849920.1681,1754,1785,1768,1000
1784849920.1701,1746,1776,1768,1000
1784849920.1721,1765,1774,1768,1000
1784849920.1741,1748,1777,1768,1000
1784849920.1761,1763,1780,1768,1000
1784849920.1782,1759,1778,1768,1000
1784849920.1802,1749,1777,1768,1000
1784849920.1823,1746,1762,1768,1000
1784849920.1843,1747,1779,1768,1000
1784849920.1863,1759,1780,1768,1000
1784849920.1883,1738,1785,1768,1000
1784849920.1903,1752,1773,1768,1000
1784849920.1923,1774,1779,1768,1000
1784849920.1946,1764,1778,1768,1000
1784849920.1968,1760,1767,1768,1000
1784849920.1991,1746,1780,1768,1000
1784849920.2009,1745,1782,1768,1000
1784849920.2027,1757,1782,1768,1000
1784849920.2045,1750,1777,1768,1000
1784849920.2065,1740,1780,1768,1000
1784849920.2085,1749,1782,1768,1000
1784849920.2105,1773,1783,1768,1000
1784849920.2125,1768,1775,1768,1000
1784849920.2146,1746,1782,1768,1000
1784849920.2167,1748,1778,1768,1000
1784849920.2187,1763,1773,1768,1000
1784849920.2208,1759,1783,1768,1000
1784849920.2228,1736,1778,1768,1000
1784849920.2248,1747,1760,1767,1000
1784849920.2268,1760,1776,1767,1000
1784849920.2288,1743,1777,1767,1000
1784849920.2309,1636,1798,1768,1000
1784849920.2329,1774,1781,1768,1000
1784849920.2350,1757,1774,1768,1000
1784849920.2370,1752,1781,1768,1000
1784849920.2391,1751,1779,1768,1000
1784849920.2411,1745,1780,1768,1000
1784849920.2456,1752,1777,1767,1000
1784849920.2501,1757,1775,1767,1000
1784849920.2546,1750,1777,1767,1000
1784849920.2549,1762,1773,1767,1000
1784849920.2552,1757,1773,1767,1000
1784849920.2555,1767,1775,1767,1000
1784849920.2569,1767,1771,1767,1000
1784849920.2582,1743,1775,1767,1000
1784849920.2595,1744,1782,1767,1000
1784849920.2614,1764,1779,1767,1000
1784849920.2633,1772,1775,1767,1000
1784849920.2653,1737,1773,1767,1000
1784849920.2674,1746,1775,1767,1000
1784849920.2695,1760,1774,1767,1000
1784849920.2717,1762,1773,1767,1000
1784849920.2736,1752,1774,1767,1000
1784849920.2756,1744,1774,1767,1000
1784849920.2776,1770,1772,1767,1000
1784849920.2830,1773,1780,1767,1000
1784849920.2832,1746,1775,1767,1000
1784849920.2834,1752,1774,1767,1000
1784849920.2836,1753,1778,1767,1000
1784849920.2858,1753,1776,1767,1000
1784849920.2880,1738,1778,1767,1000
1784849920.2902,1754,1779,1767,1000
1784849920.2922,1756,1776,1767,1000
1784849920.2941,1763,1773,1767,1000
1784849920.2961,1748,1775,1766,1000
1784849920.2982,1752,1774,1766,1000
1784849920.3003,1757,1772,1766,1000
1784849920.3025,1763,1772,1766,1000
1784849920.3046,1746,1774,1766,1000
1784849920.3068,1754,1773,1766,1000
1784849920.3089,1753,1767,1766,1000
1784849920.3107,1762,1769,1766,1000
1784849920.3125,1762,1785,1766,1000
1784849920.3143,1746,1779,1766,1000
1784849920.3163,1749,1775,1766,1000
1784849920.3183,1772,1772,1766,1000
1784849920.3203,1758,1774,1766,1000
1784849920.3251,1744,1776,1766,1000
1784849920.3300,1744,1771,1766,1000
1784849920.3348,1754,1771,1766,1000
1784849920.3353,1758,1771,1766,1000
1784849920.3357,1707,1773,1766,1000
1784849920.3361,1743,1776,1766,1000
1784849920.3369,1745,1777,1766,1000
1784849920.3377,1771,1779,1766,1000
1784849920.3385,1739,1778,1766,1000
1784849920.3406,1743,1777,1766,1000
1784849920.3427,1760,1778,1766,1000
1784849920.3448,1761,1772,1766,1000
1784849920.3468,1753,1780,1766,1000
1784849920.3488,1745,1770,1766,1000
1784849920.3508,1764,1774,1765,1000
1784849920.3528,1750,1776,1765,1000
1784849920.3549,1752,1773,1765,1000
1784849920.3569,1744,1781,1765,1000
1784849920.3591,1765,1770,1765,1000
1784849920.3613,1752,1766,1765,1000
1784849920.3635,1744,1774,1765,1000
1784849920.3654,1742,1775,1765,1000
1784849920.3672,1741,1773,1765,1000
1784849920.3691,1764,1771,1765,1000
1784849920.3712,1763,1780,1765,1000
1784849920.3733,1756,1774,1765,1000
1784849920.3754,1751,1771,1765,1000
1784849920.3774,1774,1780,1765,1000
1784849920.3794,1757,1784,1765,1000
1784849920.3815,1752,1786,1765,1000
1784849920.3834,1742,1780,1765,1000
1784849920.3853,1751,1785,1765,1000
1784849920.3873,1765,1780,1765,1000
1784849920.3893,1749,1777,1765,1000
1784849920.3913,1732,1786,1765,1000
1784849920.3934,1633,1782,1765,1000
1784849920.3978,1774,1783,1766,1000
1784849920.4023,1759,1780,1766,1000
1784849920.4067,1742,1779,1766,1000
1784849920.4071,1761,1788,1766,1000
1784849920.4075,1762,1802,1766,1000
1784849920.4078,1741,1780,1766,1000
1784849920.4110,1746,1777,1766,1000
1784849920.4112,1736,1775,1766,1000
1784849920.4114,1632,1795,1766,1000
1784849920.4117,1772,1779,1766,1000
1784849920.4138,1756,1784,1766,1000
1784849920.4159,1761,1782,1766,1000
1784849920.4180,1769,1780,1766,1000
1784849920.4201,1765,1778,1766,1000
1784849920.4222,1748,1779,1766,1000
1784849920.4243,1764,1783,1766,1000
1784849920.4262,1768,1785,1766,1000
1784849920.4281,1756,1771,1766,1000
1784849920.4300,1756,1774,1766,1000
1784849920.4320,1754,1782,1766,1000
1784849920.4341,1764,1782,1766,1000
1784849920.4362,1762,1779,1766,1000
1784849920.4382,1760,1797,1766,1000
1784849920.4402,1742,1786,1767,1000
1784849920.4423,1736,1779,1767,1000
1784849920.4442,1760,1781,1767,1000
1784849920.4462,1758,1777,1767,1000
1784849920.4482,1734,1780,1767,1000
1784849920.4503,1753,1778,1767,1000
1784849920.4523,1759,1774,1766,1000
1784849920.4544,1754,1779,1766,1000
1784849920.4564,1743,1775,1766,1000
1784849920.4585,1753,1782,1766,1000
1784849920.4605,1779,1772,1766,1000
1784849920.4642,1751,1779,1766,1000
1784849920.4679,1744,1781,1766,1000
1784849920.4717,1752,1774,1766,1000
1784849920.4720,1756,1771,1766,1000
1784849920.4723,1622,1777,1766,1000
1784849920.4726,1743,1751,1766,1000
1784849920.4748,1747,1780,1766,1000
1784849920.4770,1784,1769,1766,1000
1784849920.4792,1766,1785,1766,1000
1784849920.4810,1745,1777,1766,1000
1784849920.4829,1740,1774,1766,1000
1784849920.4847,1770,1777,1766,1000
1784849920.4868,1760,1759,1766,1000
1784849920.4889,1760,1768,1766,1000
1784849920.4910,1765,1774,1766,1000
1784849920.4930,1766,1778,1766,1000
1784849920.4950,1762,1779,1766,1000
1784849920.4970,1752,1773,1766,1000
1784849920.4990,1753,1771,1766,1000
1784849920.5010,1751,1772,1765,1000
1784849920.5030,1759,1783,1766,1000
1784849920.5053,1744,1779,1766,1000
1784849920.5075,1746,1771,1765,1000
1784849920.5098,1749,1775,1765,1000
1784849920.5117,1739,1779,1765,1000
1784849920.5136,1759,1765,1765,1000
1784849920.5154,1740,1772,1765,1000
1784849920.5174,1744,1773,1765,1000
1784849920.5194,1763,1775,1765,1000
1784849920.5213,1766,1782,1765,1000
1784849920.5235,1740,1773,1765,1000
1784849920.5257,1747,1775,1765,1000
1784849920.5279,1759,1776,1765,1000
1784849920.5324,1775,1775,1765,1000
1784849920.5369,1754,1774,1765,1000
1784849920.5414,1749,1771,1765,1000
1784849920.5416,1771,1775,1765,1000
1784849920.5418,1748,1774,1765,1000
1784849920.5420,1746,1779,1765,1000
1784849920.5422,1745,1780,1765,1000
1784849920.5438,1768,1775,1765,1000
1784849920.5454,1748,1777,1765,1000
1784849920.5470,1743,1776,1765,1000
1784849920.5488,1738,1772,1765,1000
1784849920.5507,1660,1787,1765,1000
1784849920.5525,1773,1777,1765,1000
1784849920.5544,1759,1781,1765,1000
1784849920.5564,1746,1776,1765,1000
1784849920.5583,1751,1777,1765,1000
1784849920.5605,1768,1776,1765,1000
1784849920.5626,1756,1772,1765,1000
1784849920.5648,1743,1773,1765,1000
1784849920.5667,1746,1778,1765,1000
1784849920.5687,1751,1777,1765,1000
1784849920.5706,1770,1778,1765,1000
1784849920.5727,1745,1776,1765,1000
1784849920.5747,1772,1778,1765,1000
1784849920.5768,1763,1781,1765,1000
1784849920.5789,1746,1777,1765,1000
1784849920.5809,1743,1776,1765,1000
1784849920.5830,1745,1774,1765,1000
1784849920.5851,1756,1770,1765,1000
1784849920.5872,1755,1730,1764,1000
1784849920.5893,1753,1773,1764,1000
1784849920.5911,1744,1778,1764,1000
1784849920.5930,1760,1778,1764,1000
1784849920.5949,1759,1776,1764,1000
1784849920.5971,1750,1775,1764,1000
1784849920.5992,1717,1778,1764,1000
1784849920.6014,1755,1771,1764,1000
1784849920.6034,1758,1787,1764,1000
1784849920.6054,1757,1772,1764,1000
1784849920.6075,1746,1775,1764,1000
1784849920.6098,1742,1768,1764,1000
1784849920.6121,1774,1765,1764,1000
1784849920.6145,1761,1776,1764,1000
1784849920.6162,1750,1778,1764,1000
1784849920.6179,1750,1778,1764,1000
1784849920.6195,1766,1779,1764,1000
1784849920.6216,1759,1781,1764,1000
1784849920.6236,1748,1777,1764,1000
1784849920.6256,1754,1777,1764,1000
1784849920.6275,1766,1778,1764,1000
1784849920.6294,1784,1774,1764,1000
1784849920.6314,1761,1777,1764,1000
1784849920.6336,1742,1779,1764,1000
1784849920.6357,1753,1774,1764,1000
1784849920.6379,1758,1781,1764,1000
1784849920.6398,1745,1777,1764,1000
1784849920.6416,1749,1776,1764,1000
1784849920.6435,1757,1778,1764,1000
1784849920.6455,1770,1779,1764,1000
1784849920.6475,1763,1773,1764,1000
1784849920.6495,1720,1777,1764,1000
1784849920.6534,1584,1781,1764,1000
1784849920.6572,1771,1773,1764,1000
1784849920.6610,1773,1775,1764,1000
1784849920.6675,1745,1780,1764,1000
1784849920.6740,1745,1781,1764,1000
1784849920.6805,1762,1779,1764,1000
1784849920.6806,1756,1778,1764,1000
1784849920.6807,1744,1781,1765,1000
1784849920.6808,1739,1783,1765,1000
1784849920.6809,1765,1776,1765,1000
1784849920.6810,1768,1776,1765,1000
1784849920.6811,1750,1780,1765,1000
1784849920.6812,1753,1777,1765,1000
1784849920.6813,1765,1785,1765,1000
1784849920.6814,1773,1782,1765,1000
1784849920.6814,1749,1783,1765,1000
1784849920.6831,1738,1778,1765,1000
1784849920.6847,1751,1776,1765,1000
1784849920.6864,1757,1777,1765,1000
1784849920.6885,1755,1785,1765,1000
1784849920.6906,1747,1777,1765,1000
1784849920.6926,1767,1779,1765,1000
1784849920.6947,1765,1781,1765,1000
1784849920.6967,1764,1776,1765,1000
1784849920.6987,1742,1778,1765,1000
1784849920.7007,1750,1785,1765,1000
1784849920.7027,1753,1778,1765,1000
1784849920.7047,1744,1779,1765,1000
1784849920.7068,1741,1782,1765,1000
1784849920.7089,1764,1778,1765,1000
1784849920.7109,1769,1776,1765,1000
1784849920.7133,1766,1775,1765,1000
1784849920.7157,1754,1775,1765,1000
1784849920.7181,1750,1778,1765,1000
1784849920.7197,1762,1773,1765,1000
1784849920.7213,1772,1775,1765,1000
1784849920.7229,1740,1781,1765,1000
1784849920.7250,1739,1776,1765,1000
1784849920.7271,1762,1775,1765,1000
1784849920.7293,1754,1774,1765,1000
1784849920.7313,1753,1778,1765,1000
1784849920.7333,1749,1775,1765,1000
1784849920.7353,1765,1785,1765,1000
1784849920.7373,1765,1775,1765,1000
1784849920.7393,1754,1773,1765,1000
1784849920.7413,1748,1776,1765,1000
1784849920.7435,1762,1780,1765,1000
1784849920.7457,1758,1780,1765,1000
1784849920.7478,1749,1780,1765,1000
1784849920.7496,1730,1780,1765,1000
1784849920.7515,1759,1810,1765,1000
1784849920.7533,1767,1777,1765,1000
1784849920.7553,1755,1779,1765,1000
1784849920.7574,1748,1771,1765,1000
1784849920.7594,1746,1772,1765,1000
1784849920.7616,1762,1778,1765,1000
1784849920.7639,1766,1775,1765,1000
1784849920.7661,1744,1775,1765,1000
1784849920.7680,1737,1783,1765,1000
1784849920.7699,1781,1778,1765,1000
1784849920.7718,1768,1781,1765,1000
1784849920.7739,1744,1777,1765,1000
1784849920.7759,1746,1775,1765,1000
1784849920.7780,1758,1772,1765,1000
1784849920.7800,1767,1772,1765,1000
1784849920.7819,1741,1774,1765,1000
1784849920.7839,1746,1773,1765,1000
1784849920.7860,1754,1773,1765,1000
1784849920.7882,1754,1772,1765,1000
1784849920.7903,1748,1777,1765,1000
1784849920.7953,1744,1774,1765,1000
1784849920.7957,1734,1774,1765,1000
1784849920.7961,1771,1762,1765,1000
1784849920.7965,1768,1772,1765,1000
1784849920.8037,1761,1774,1765,1000
1784849920.8109,1744,1771,1765,1000
1784849920.8181,1763,1773,1765,1000
1784849920.8186,1748,1770,1765,1000
1784849920.8190,1740,1771,1765,1000
1784849920.8194,1753,1766,1764,1000
1784849920.8199,1773,1777,1764,1000
1784849920.8203,1774,1778,1764,1000
1784849920.8208,1746,1778,1764,1000
1784849920.8212,1742,1784,1765,1000
1784849920.8216,1764,1781,1765,1000
1784849920.8221,1761,1778,1765,1000
1784849920.8236,1744,1777,1765,1000
1784849920.8252,1746,1777,1765,1000
1784849920.8268,1758,1779,1765,1000
1784849920.8289,1757,1778,1765,1000
1784849920.8310,1684,1786,1765,1000
1784849920.8331,1744,1783,1765,1000
1784849920.8350,1754,1776,1765,1000
1784849920.8370,1767,1789,1765,1000
1784849920.8389,1747,1781,1765,1000
1784849920.8410,1744,1779,1765,1000
1784849920.8430,1766,1773,1765,1000
1784849920.8451,1761,1781,1765,1000
1784849920.8471,1745,1777,1765,1000
1784849920.8490,1731,1752,1765,1000
1784849920.8510,1764,1775,1765,1000
1784849920.8531,1767,1781,1765,1000
1784849920.8552,1756,1775,1765,1000
1784849920.8573,1745,1775,1765,1000
1784849920.8594,1745,1764,1765,1000
1784849920.8615,1758,1782,1765,1000
1784849920.8636,1750,1773,1765,1000
1784849920.8654,1755,1775,1765,1000
1784849920.8672,1761,1776,1765,1000
1784849920.8689,1743,1777,1765,1000
1784849920.8711,1745,1779,1765,1000
1784849920.8732,1605,1778,1765,1000
1784849920.8753,1753,1773,1765,1000
1784849920.8774,1757,1775,1765,1000
1784849920.8794,1758,1785,1765,1000
1784849920.8815,1754,1775,1765,1000
1784849920.8836,1742,1780,1765,1000
1784849920.8856,1746,1774,1765,1000
1784849920.8877,1764,1774,1765,1000
1784849920.8897,1740,1779,1765,1000
1784849920.8917,1747,1779,1765,1000
1784849920.8936,1763,1779,1765,1000
1784849920.8958,1781,1782,1765,1000
1784849920.8980,1746,1783,1765,1000
1784849920.9002,1751,1783,1765,1000
1784849920.9023,1760,1781,1765,1000
1784849920.9043,1761,1778,1765,1000
1784849920.9064,1742,1783,1765,1000
1784849920.9083,1741,1784,1765,1000
1784849920.9102,1743,1782,1765,1000
1784849920.9122,1774,1780,1765,1000
1784849920.9144,1750,1783,1765,1000
1784849920.9166,1744,1782,1765,1000
1784849920.9188,1761,1779,1765,1000
1784849920.9234,1762,1779,1765,1000
1784849920.9238,1755,1780,1765,1000
1784849920.9241,1739,1780,1765,1000
1784849920.9245,1749,1782,1765,1000
1784849920.9284,1758,1778,1765,1000
1784849920.9323,1765,1792,1765,1000
1784849920.9363,1749,1792,1766,1000
1784849920.9402,1746,1788,1766,1000
1784849920.9441,1758,1783,1766,1000
1784849920.9480,1760,1788,1766,1000
1784849920.9482,1758,1788,1766,1000
1784849920.9484,1736,1789,1766,1000
1784849920.9486,1748,1788,1766,1000
1784849920.9488,1760,1791,1766,1000
1784849920.9490,1763,1788,1766,1000
1784849920.9491,1762,1785,1766,1000
1784849920.9511,1746,1781,1766,1000
1784849920.9530,1762,1790,1767,1000
1784849920.9549,1762,1788,1767,1000
1784849920.9569,1756,1787,1767,1000
1784849920.9588,1754,1788,1767,1000
1784849920.9608,1765,1787,1767,1000
1784849920.9630,1750,1788,1767,1000
1784849920.9652,1741,1785,1767,1000
1784849920.9674,1738,1781,1767,1000
1784849920.9694,1773,1790,1767,1000
1784849920.9715,1765,1788,1767,1000
1784849920.9736,1753,1786,1767,1000
1784849920.9754,1743,1778,1767,1000
1784849920.9772,1763,1784,1767,1000
1784849920.9790,1762,1780,1767,1000
1784849920.9812,1760,1790,1767,1000
1784849920.9833,1749,1787,1768,1000
1784849920.9854,1746,1787,1768,1000
1784849920.9874,1756,1793,1768,1000
1784849920.9894,1741,1783,1768,1000
1784849920.9914,1752,1784,1768,1000
1784849920.9933,1760,1777,1768,1000
1784849920.9953,1768,1787,1768,1000
1784849920.9973,1761,1783,1768,1000
1784849920.9994,1745,1787,1768,1000
1784849921.0015,1748,1788,1768,1000
1784849921.0036,1760,1781,1768,1000
1784849921.0056,1766,1783,1768,1000
1784849921.0076,1741,1780,1768,1000
1784849921.0096,1733,1779,1768,1000
1784849921.0116,1765,1782,1768,1000
1784849921.0136,1771,1783,1768,1000
1784849921.0156,1748,1784,1768,1000
1784849921.0182,1745,1783,1768,1000
1784849921.0209,1758,1783,1768,1000
1784849921.0236,1760,1780,1768,1000
1784849921.0251,1754,1786,1768,1000
1784849921.0266,1752,1786,1768,1000
1784849921.0281,1747,1780,1768,1000
1784849921.0301,1746,1782,1768,1000
1784849921.0321,1749,1772,1768,1000
1784849921.0341,1745,1781,1768,1000
1784849921.0365,1759,1782,1768,1000
1784849921.0389,1762,1783,1768,1000
1784849921.0413,1757,1778,1768,1000
1784849921.0430,1755,1781,1768,1000
1784849921.0447,1750,1784,1768,1000
1784849921.0465,1750,1788,1768,1000
1784849921.0514,1752,1779,1768,1000
1784849921.0519,1736,1776,1768,1000
1784849921.0525,1696,1782,1768,1000
1784849921.0530,1763,1780,1768,1000
1784849921.0622,1763,1778,1768,1000
1784849921.0713,1750,1779,1768,1000
1784849921.0805,1744,1778,1768,1000
1784849921.0806,1760,1784,1768,1000
1784849921.0807,1758,1774,1768,1000
1784849921.0808,1744,1778,1768,1000
1784849921.0809,1735,1777,1768,1000
1784849921.0810,1747,1781,1768,1000
1784849921.0811,1776,1781,1768,1000
1784849921.0812,1742,1788,1768,1000
1784849921.0813,1748,1771,1768,1000
1784849921.0814,1762,1773,1768,1000
1784849921.0818,1766,1780,1768,1000
1784849921.0821,1745,1779,1768,1000
1784849921.0825,1744,1779,1768,1000
1784849921.0845,1754,1776,1768,1000
1784849921.0866,1772,1784,1768,1000
1784849921.0887,1728,1773,1768,1000
1784849921.0913,1754,1781,1768,1000
1784849921.0938,1755,1780,1768,1000
1784849921.0964,1762,1784,1768,1000
1784849921.0979,1758,1781,1768,1000
1784849921.0995,1743,1790,1768,1000
1784849921.1010,1750,1777,1768,1000
1784849921.1031,1756,1783,1768,1000
1784849921.1052,1754,1785,1768,1000
1784849921.1073,1745,1780,1768,1000
1784849921.1093,1755,1782,1768,1000
1784849921.1113,1661,1779,1768,1000
1784849921.1133,1760,1787,1768,1000
1784849921.1153,1776,1782,1768,1000
1784849921.1173,1744,1784,1768,1000
1784849921.1193,1757,1777,1768,1000
1784849921.1217,1752,1773,1768,1000
1784849921.1240,1746,1776,1768,1000
1784849921.1264,1742,1781,1768,1000
1784849921.1282,1751,1778,1768,1000
1784849921.1300,1763,1780,1768,1000
1784849921.1317,1758,1782,1768,1000
1784849921.1337,1744,1780,1768,1000
1784849921.1357,1759,1778,1768,1000
1784849921.1377,1774,1782,1768,1000
1784849921.1397,1752,1777,1768,1000
1784849921.1418,1738,1779,1768,1000
1784849921.1438,1754,1779,1768,1000
1784849921.1459,1767,1773,1768,1000
1784849921.1481,1768,1780,1768,1000
1784849921.1502,1723,1778,1768,1000
1784849921.1521,1754,1792,1768,1000
1784849921.1540,1758,1780,1768,1000
1784849921.1560,1746,1778,1768,1000
1784849921.1580,1738,1773,1768,1000
1784849921.1600,1750,1778,1768,1000
1784849921.1620,1762,1775,1768,1000
1784849921.1641,1756,1776,1768,1000
1784849921.1662,1742,1774,1768,1000
1784849921.1682,1747,1776,1768,1000
1784849921.1705,1735,1777,1768,1000
1784849921.1728,1756,1776,1768,1000
1784849921.1751,1747,1775,1768,1000
1784849921.1802,1750,1763,1768,1000
1784849921.1805,1759,1778,1768,1000
1784849921.1809,1760,1776,1767,1000
1784849921.1812,1752,1779,1767,1000
1784849921.1833,1744,1778,1767,1000
1784849921.1854,1750,1778,1767,1000
1784849921.1874,1751,1776,1767,1000
1784849921.1891,1766,1774,1767,1000
1784849921.1908,1747,1779,1767,1000
1784849921.1926,1757,1778,1767,1000
1784849921.1952,1768,1778,1767,1000
1784849921.1979,1772,1771,1767,1000
1784849921.2006,1744,1776,1767,1000
1784849921.2032,1737,1776,1767,1000
1784849921.2059,1765,1780,1767,1000
1784849921.2086,1778,1779,1767,1000
1784849921.2113,1728,1735,1767,1000
1784849921.2139,1740,1778,1767,1000
1784849921.2166,1773,1785,1767,1000
1784849921.2170,1760,1775,1767,1000
1784849921.2174,1744,1782,1767,1000
1784849921.2177,1742,1781,1767,1000
1784849921.2195,1757,1778,1767,1000
1784849921.2213,1756,1785,1767,1000
1784849921.2230,1740,1782,1767,1000
1784849921.2253,1752,1781,1767,1000
1784849921.2275,1773,1783,1767,1000
1784849921.2298,1756,1782,1767,1000
1784849921.2316,1748,1777,1767,1000
1784849921.2334,1746,1780,1767,1000
1784849921.2352,1761,1782,1767,1000
1784849921.2372,1763,1782,1767,1000
1784849921.2393,1750,1786,1767,1000
1784849921.2414,1745,1781,1767,1000
1784849921.2434,1755,1776,1767,1000
1784849921.2453,1749,1782,1767,1000
1784849921.2473,1749,1779,1767,1000
1784849921.2493,1763,1782,1767,1000
1784849921.2514,1753,1782,1767,1000
1784849921.2535,1763,1774,1767,1000
1784849921.2555,1766,1787,1767,1000
1784849921.2575,1749,1774,1767,1000
1784849921.2596,1744,1781,1767,1000
1784849921.2616,1764,1773,1767,1000
1784849921.2636,1765,1779,1767,1000
1784849921.2656,1739,1779,1767,1000
1784849921.2676,1741,1767,1767,1000
1784849921.2696,1747,1782,1767,1000
1784849921.2716,1718,1778,1767,1000
1784849921.2736,1751,1781,1767,1000
1784849921.2757,1746,1777,1767,1000
1784849921.2777,1761,1776,1767,1000
1784849921.2798,1766,1805,1767,1000
1784849921.2818,1749,1777,1767,1000
1784849921.2839,1741,1777,1767,1000
1784849921.2860,1762,1777,1767,1000
1784849921.2880,1772,1782,1767,1000
1784849921.2900,1734,1788,1767,1000
1784849921.2920,1746,1779,1767,1000
1784849921.2940,1765,1786,1767,1000
1784849921.2960,1760,1782,1767,1000
1784849921.2981,1751,1786,1767,1000
1784849921.3002,1744,1791,1767,1000
1784849921.3023,1752,1779,1767,1000
1784849921.3072,1754,1783,1768,1000
1784849921.3076,1752,1781,1768,1000
1784849921.3080,1745,1781,1768,1000
1784849921.3084,1751,1782,1768,1000
1784849921.3109,1763,1782,1768,1000
1784849921.3133,1762,1783,1768,1000
1784849921.3157,1767,1784,1768,1000
1784849921.3172,1749,1721,1767,1000
1784849921.3186,1754,1780,1767,1000
1784849921.3201,1764,1777,1767,1000
1784849921.3221,1744,1790,1767,1000
1784849921.3241,1745,1780,1767,1000
1784849921.3261,1750,1781,1767,1000
1784849921.3285,1757,1777,1767,1000
1784849921.3308,1756,1789,1767,1000
1784849921.3332,1744,1780,1767,1000
1784849921.3372,1754,1825,1768,1000
1784849921.3412,1769,1780,1768,1000
1784849921.3453,1759,1782,1768,1000
1784849921.3456,1743,1778,1768,1000
1784849921.3459,1763,1776,1768,1000
1784849921.3462,1753,1777,1768,1000
1784849921.3477,1746,1779,1768,1000
1784849921.3491,1739,1780,1768,1000
1784849921.3505,1752,1776,1768,1000
1784849921.3525,1763,1777,1768,1000
1784849921.3545,1749,1785,1768,1000
1784849921.3564,1744,1782,1768,1000
1784849921.3585,1749,1807,1768,1000
1784849921.3605,1762,1784,1768,1000
1784849921.3625,1772,1779,1768,1000
1784849921.3646,1736,1780,1768,1000
1784849921.3667,1745,1781,1768,1000
1784849921.3688,1751,1780,1768,1000
1784849921.3708,1763,1772,1768,1000
1784849921.3728,1749,1787,1768,1000
1784849921.3748,1749,1775,1768,1000
1784849921.3768,1758,1778,1768,1000
1784849921.3788,1760,1770,1768,1000
1784849921.3808,1755,1781,1768,1000
1784849921.3830,1749,1778,1768,1000
1784849921.3852,1750,1780,1768,1000
1784849921.3874,1756,1776,1768,1000
1784849921.3892,1753,1775,1768,1000
1784849921.3911,1636,1777,1768,1000
1784849921.3930,1753,1776,1768,1000
1784849921.3950,1776,1777,1768,1000
1784849921.3970,1767,1767,1767,1000
1784849921.3990,1739,1773,1767,1000
1784849921.4011,1762,1767,1767,1000
1784849921.4032,1754,1780,1767,1000
1784849921.4053,1750,1778,1767,1000
1784849921.4073,1745,1776,1767,1000
1784849921.4093,1765,1778,1767,1000
1784849921.4113,1767,1777,1767,1000
1784849921.4151,1760,1778,1767,1000
1784849921.4189,1746,1776,1767,1000
1784849921.4226,1743,1775,1767,1000
1784849921.4229,1765,1775,1767,1000
1784849921.4231,1754,1777,1767,1000
1784849921.4233,1738,1774,1767,1000
1784849921.4254,1742,1778,1767,1000
1784849921.4274,1754,1824,1767,1000
1784849921.4295,1740,1776,1767,1000
1784849921.4350,1758,1774,1767,1000
1784849921.4353,1754,1776,1767,1000
1784849921.4355,1747,1772,1767,1000
1784849921.4358,1775,1774,1767,1000
1784849921.4379,1737,1780,1767,1000
1784849921.4401,1748,1772,1767,1000
1784849921.4422,1747,1780,1767,1000
1784849921.4441,1758,1794,1767,1000
1784849921.4460,1753,1778,1767,1000
1784849921.4480,1739,1780,1767,1000
1784849921.4500,1742,1773,1767,1000
1784849921.4520,1745,1779,1767,1000
1784849921.4540,1766,1768,1767,1000
1784849921.4565,1768,1773,1767,1000
1784849921.4589,1751,1772,1767,1000
1784849921.4614,1755,1773,1767,1000
1784849921.4631,1761,1771,1767,1000
1784849921.4647,1742,1772,1767,1000
1784849921.4663,1738,1776,1767,1000
1784849921.4683,1746,1776,1767,1000
1784849921.4703,1758,1774,1767,1000
1784849921.4722,1742,1775,1767,1000
1784849921.4743,1777,1776,1767,1000
1784849921.4764,1765,1780,1767,1000
1784849921.4785,1756,1781,1767,1000
1784849921.4813,1744,1823,1767,1000
1784849921.4840,1744,1774,1767,1000
1784849921.4868,1759,1789,1767,1000
1784849921.4880,1765,1781,1767,1000
1784849921.4893,1755,1782,1767,1000
1784849921.4905,1750,1775,1767,1000
1784849921.4926,1758,1780,1767,1000
1784849921.4947,1766,1776,1767,1000
1784849921.4968,1752,1776,1767,1000
1784849921.4988,1745,1772,1767,1000
1784849921.5007,1747,1789,1767,1000
1784849921.5027,1754,1780,1767,1000
1784849921.5048,1753,1778,1767,1000
1784849921.5068,1763,1775,1767,1000
1784849921.5089,1766,1777,1767,1000
1784849921.5110,1757,1772,1767,1000
1784849921.5130,1755,1780,1767,1000
1784849921.5151,1756,1777,1767,1000
1784849921.5171,1744,1784,1767,1000
1784849921.5191,1755,1775,1767,1000
1784849921.5211,1762,1776,1767,1000
1784849921.5231,1741,1773,1767,1000
1784849921.5252,1744,1789,1767,1000
1784849921.5272,1758,1775,1767,1000
1784849921.5293,1765,1774,1767,1000
1784849921.5313,1757,1776,1767,1000
1784849921.5333,1741,1771,1767,1000
1784849921.5354,1748,1772,1767,1000
1784849921.5374,1771,1774,1767,1000
1784849921.5394,1750,1776,1767,1000
1784849921.5419,1741,1777,1767,1000
1784849921.5444,1745,1780,1767,1000
1784849921.5469,1761,1780,1767,1000
1784849921.5484,1749,1777,1767,1000
1784849921.5500,1744,1774,1767,1000
1784849921.5515,1770,1774,1766,1000
1784849921.5535,1778,1784,1767,1000
1784849921.5556,1763,1763,1766,1000
1784849921.5576,1743,1781,1766,1000
1784849921.5630,1753,1784,1766,1000
1784849921.5631,1754,1783,1766,1000
1784849921.5633,1762,1780,1767,1000
1784849921.5634,1742,1779,1767,1000
1784849921.5656,1743,1784,1767,1000
1784849921.5679,1761,1786,1767,1000
1784849921.5701,1751,1774,1767,1000
1784849921.5720,1749,1771,1767,1000
1784849921.5740,1742,1777,1766,1000
1784849921.5760,1752,1779,1767,1000
1784849921.5780,1760,1776,1766,1000
1784849921.5801,1775,1778,1766,1000
1784849921.5821,1741,1779,1766,1000
1784849921.5841,1739,1781,1766,1000
1784849921.5862,1762,1782,1767,1000
1784849921.5882,1742,1782,1767,1000
1784849921.5902,1749,1776,1767,1000
1784849921.5922,1762,1779,1767,1000
1784849921.5942,1761,1780,1767,1000
1784849921.5966,1772,1780,1767,1000
1784849921.5990,1742,1781,1767,1000
1784849921.6013,1744,1764,1766,1000
1784849921.6036,1790,1779,1766,1000
1784849921.6058,1750,1779,1766,1000
1784849921.6081,1739,1777,1766,1000
1784849921.6096,1739,1777,1766,1000
1784849921.6110,1759,1777,1766,1000
1784849921.6125,1770,1777,1766,1000
1784849921.6145,1748,1776,1766,1000
1784849921.6165,1747,1769,1766,1000
1784849921.6185,1760,1781,1766,1000
1784849921.6206,1779,1778,1766,1000
1784849921.6227,1731,1788,1766,1000
1784849921.6248,1740,1785,1766,1000
1784849921.6268,1747,1772,1766,1000
1784849921.6288,1749,1774,1766,1000
1784849921.6308,1762,1780,1766,1000
1784849921.6328,1747,1776,1766,1000
1784849921.6347,1747,1778,1766,1000
1784849921.6367,1762,1782,1766,1000
1784849921.6390,1758,1776,1766,1000
1784849921.6413,1752,1778,1766,1000
1784849921.6437,1746,1780,1766,1000
1784849921.6455,1764,1787,1766,1000
1784849921.6473,1761,1776,1766,1000
1784849921.6491,1754,1774,1766,1000
1784849921.6511,1748,1779,1766,1000
1784849921.6531,1767,1776,1766,1000
1784849921.6551,1771,1778,1766,1000
1784849921.6572,1740,1774,1766,1000
1784849921.6592,1744,1779,1766,1000
1784849921.6613,1756,1775,1766,1000
1784849921.6658,1764,1782,1766,1000
1784849921.6703,1728,1778,1766,1000
1784849921.6748,1743,1776,1766,1000
1784849921.6750,1766,1776,1766,1000
1784849921.6752,1763,1768,1766,1000
1784849921.6754,1748,1778,1766,1000
1784849921.6767,1746,1771,1766,1000
1784849921.6781,1769,1768,1766,1000
1784849921.6795,1765,1777,1766,1000
1784849921.6817,1739,1784,1766,1000
1784849921.6839,1724,1775,1766,1000
1784849921.6860,1748,1780,1766,1000
1784849921.6910,1755,1773,1766,1000
1784849921.6912,1760,1773,1766,1000
1784849921.6914,1755,1799,1766,1000
1784849921.6916,1752,1773,1766,1000
1784849921.6938,1771,1778,1766,1000
1784849921.6960,1746,1774,1766,1000
1784849921.6982,1751,1774,1766,1000
1784849921.7001,1741,1776,1766,1000
1784849921.7020,1757,1778,1766,1000
1784849921.7039,1752,1768,1766,1000
1784849921.7060,1732,1774,1766,1000
1784849921.7080,1749,1777,1766,1000
1784849921.7101,1760,1780,1766,1000
1784849921.7121,1759,1732,1765,1000
1784849921.7142,1766,1776,1765,1000
1784849921.7162,1739,1774,1765,1000
1784849921.7182,1756,1773,1765,1000
1784849921.7203,1778,1773,1765,1000
1784849921.7223,1743,1778,1765,1000
1784849921.7243,1743,1775,1765,1000
1784849921.7262,1748,1771,1765,1000
1784849921.7282,1773,1778,1765,1000
1784849921.7327,1739,1775,1765,1000
1784849921.7372,1741,1773,1765,1000
1784849921.7417,1747,1774,1765,1000
1784849921.7418,1764,1777,1765,1000
1784849921.7420,1745,1770,1765,1000
1784849921.7421,1737,1817,1765,1000
1784849921.7437,1761,1773,1765,1000
1784849921.7452,1766,1772,1765,1000
1784849921.7467,1745,1777,1765,1000
1784849921.7488,1742,1773,1765,1000
1784849921.7508,1744,1772,1765,1000
1784849921.7528,1756,1775,1765,1000
1784849921.7548,1701,1786,1765,1000
1784849921.7568,1751,1770,1765,1000
1784849921.7588,1751,1775,1765,1000
1784849921.7608,1760,1724,1765,1000
1784849921.7629,1748,1754,1764,1000
1784849921.7649,1746,1776,1764,1000
1784849921.7669,1746,1775,1764,1000
1784849921.7690,1754,1778,1764,1000
1784849921.7711,1741,1771,1764,1000
1784849921.7732,1755,1780,1764,1000
1784849921.7752,1750,1773,1764,1000
1784849921.7773,1746,1769,1764,1000
1784849921.7792,1763,1779,1764,1000
1784849921.7811,1755,1773,1764,1000
1784849921.7830,1742,1768,1764,1000
1784849921.7851,1743,1770,1764,1000
1784849921.7872,1766,1780,1764,1000
1784849921.7893,1763,1769,1764,1000
1784849921.7913,1744,1776,1764,1000
1784849921.7933,1755,1771,1764,1000
1784849921.7953,1764,1777,1764,1000
1784849921.7982,1748,1786,1764,1000
1784849921.8010,1740,1774,1764,1000
1784849921.8038,1747,1780,1764,1000
1784849921.8051,1763,1773,1764,1000
1784849921.8064,1762,1779,1764,1000
1784849921.8076,1752,1784,1764,1000
1784849921.8096,1736,1823,1765,1000
1784849921.8116,1762,1775,1765,1000
1784849921.8136,1761,1778,1765,1000
1784849921.8190,1746,1775,1765,1000
1784849921.8192,1754,1780,1765,1000
1784849921.8194,1773,1780,1765,1000
1784849921.8196,1753,1775,1765,1000
1784849921.8218,1743,1781,1765,1000
1784849921.8239,1745,1772,1765,1000
1784849921.8261,1762,1778,1765,1000
1784849921.8281,1755,1786,1765,1000
1784849921.8300,1753,1777,1765,1000
1784849921.8320,1745,1772,1765,1000
1784849921.8340,1750,1784,1765,1000
1784849921.8359,1759,1783,1765,1000
1784849921.8379,1759,1771,1765,1000
1784849921.8400,1744,1773,1765,1000
1784849921.8422,1750,1774,1765,1000
1784849921.8443,1759,1777,1765,1000
1784849921.8465,1756,1779,1765,1000
1784849921.8487,1738,1784,1765,1000
1784849921.8509,1753,1774,1765,1000
1784849921.8526,1766,1776,1765,1000
1784849921.8544,1772,1780,1765,1000
1784849921.8562,1748,1779,1765,1000
1784849921.8597,1747,1785,1765,1000
1784849921.8633,1766,1780,1765,1000
1784849921.8669,1757,1741,1765,1000
1784849921.8674,1745,1773,1765,1000
1784849921.8679,1739,1780,1765,1000
1784849921.8685,1763,1776,1765,1000
1784849921.8705,1772,1781,1765,1000
1784849921.8724,1751,1781,1765,1000
1784849921.8744,1749,1772,1765,1000
1784849921.8766,1757,1776,1765,1000
1784849921.8787,1762,1780,1765,1000
1784849921.8808,1749,1768,1765,1000
1784849921.8829,1753,1769,1764,1000
1784849921.8849,1752,1775,1764,1000
1784849921.8869,1749,1774,1764,1000
1784849921.8889,1745,1778,1764,1000
1784849921.8909,1753,1780,1764,1000
1784849921.8929,1749,1773,1764,1000
1784849921.8949,1765,1746,1764,1000
1784849921.8970,1756,1778,1764,1000
1784849921.8990,1747,1776,1764,1000
1784849921.9010,1748,1776,1764,1000
1784849921.9030,1762,1773,1764,1000
1784849921.9050,1751,1775,1764,1000
1784849921.9071,1745,1781,1764,1000
1784849921.9091,1748,1772,1764,1000
1784849921.9112,1754,1779,1764,1000
1784849921.9134,1768,1767,1764,1000
1784849921.9155,1745,1774,1764,1000
1784849921.9176,1739,1770,1764,1000
1784849921.9197,1750,1772,1764,1000
1784849921.9218,1756,1773,1764,1000
1784849921.9238,1744,1775,1764,1000
1784849921.9259,1741,1773,1764,1000
1784849921.9279,1751,1779,1764,1000
1784849921.9300,1795,1774,1764,1000
1784849921.9345,1749,1772,1764,1000
1784849921.9391,1741,1773,1764,1000
1784849921.9437,1756,1770,1764,1000
1784849921.9439,1768,1777,1764,1000
1784849921.9442,1748,1771,1764,1000
1784849921.9444,1741,1773,1764,1000
1784849921.9472,1756,1777,1764,1000
1784849921.9474,1757,1767,1764,1000
1784849921.9476,1750,1765,1763,1000
1784849921.9479,1769,1771,1763,1000
1784849921.9502,1758,1762,1763,1000
1784849921.9526,1764,1774,1763,1000
1784849921.9549,1765,1776,1763,1000
1784849921.9567,1757,1776,1763,1000
1784849921.9584,1764,1783,1763,1000
1784849921.9602,1749,1771,1763,1000
1784849921.9623,1751,1778,1763,1000
1784849921.9644,1754,1771,1763,1000
1784849921.9665,1737,1770,1763,1000
1784849921.9685,1766,1766,1763,1000
1784849921.9704,1752,1778,1763,1000
1784849921.9724,1747,1775,1763,1000
1784849921.9744,1754,1778,1763,1000
1784849921.9765,1760,1776,1763,1000
1784849921.9785,1781,1777,1763,1000
1784849921.9805,1742,1773,1763,1000
1784849921.9824,1736,1774,1763,1000
1784849921.9844,1745,1775,1763,1000
1784849921.9866,1759,1777,1763,1000
1784849921.9889,1748,1756,1763,1000
1784849921.9911,1743,1777,1763,1000
1784849921.9930,1748,1774,1763,1000
1784849921.9949,1774,1775,1763,1000
1784849921.9968,1747,1777,1763,1000
1784849921.9990,1741,1776,1763,1000
1784849922.0012,1753,1774,1763,1000
1784849922.0034,1760,1781,1763,1000
1784849922.0054,1760,1778,1763,1000
1784849922.0074,1736,1783,1763,1000
1784849922.0094,1753,1782,1763,1000
1784849922.0114,1769,1779,1763,1000
1784849922.0135,1769,1782,1763,1000
1784849922.0155,1754,1778,1763,1000
1784849922.0185,1733,1777,1763,1000
1784849922.0215,1742,1770,1763,1000
1784849922.0245,1749,1780,1763,1000
1784849922.0275,1745,1775,1763,1000
1784849922.0306,1741,1776,1763,1000
1784849922.0336,1771,1773,1763,1000
1784849922.0339,1765,1769,1763,1000
1784849922.0343,1746,1778,1763,1000
1784849922.0347,1756,1782,1763,1000
1784849922.0362,1742,1778,1763,1000
1784849922.0378,1756,1777,1763,1000
1784849922.0393,1758,1787,1764,1000
1784849922.0414,1738,1783,1764,1000
1784849922.0435,1744,1780,1764,1000
1784849922.0456,1757,1787,1764,1000
1784849922.0476,1768,1782,1764,1000
1784849922.0496,1743,1790,1764,1000
1784849922.0515,1745,1779,1764,1000
1784849922.0538,1777,1774,1764,1000
1784849922.0560,1759,1785,1764,1000
1784849922.0582,1762,1780,1764,1000
1784849922.0601,1743,1779,1764,1000
1784849922.0620,1769,1779,1764,1000
1784849922.0639,1757,1771,1764,1000
1784849922.0659,1743,1783,1764,1000
1784849922.0679,1742,1777,1764,1000
1784849922.0700,1775,1785,1764,1000
1784849922.0751,1761,1778,1764,1000
1784849922.0753,1741,1776,1764,1000
1784849922.0756,1746,1777,1764,1000
1784849922.0759,1750,1778,1764,1000
1784849922.0781,1756,1781,1764,1000
1784849922.0803,1748,1777,1764,1000
1784849922.0825,1744,1778,1764,1000
1784849922.0844,1744,1780,1764,1000
1784849922.0864,1762,1779,1764,1000
1784849922.0883,1752,1778,1764,1000
1784849922.0905,1753,1777,1764,1000
1784849922.0927,1750,1779,1764,1000
1784849922.0949,1766,1779,1764,1000
1784849922.0968,1762,1780,1765,1000
1784849922.0986,1745,1779,1765,1000
1784849922.1005,1739,1776,1765,1000
1784849922.1027,1761,1778,1765,1000
1784849922.1049,1769,1775,1765,1000
1784849922.1071,1736,1775,1765,1000
1784849922.1089,1744,1778,1765,1000
1784849922.1108,1731,1788,1765,1000
1784849922.1127,1772,1773,1765,1000
1784849922.1148,1752,1780,1765,1000
1784849922.1169,1744,1779,1765,1000
1784849922.1190,1761,1777,1765,1000
1784849922.1210,1766,1780,1765,1000
1784849922.1230,1745,1782,1765,1000
1784849922.1250,1743,1774,1765,1000
1784849922.1271,1750,1779,1765,1000
1784849922.1292,1798,1782,1765,1000
1784849922.1313,1740,1777,1765,1000
1784849922.1334,1737,1785,1765,1000
1784849922.1354,1756,1781,1765,1000
1784849922.1375,1757,1784,1765,1000
1784849922.1395,1751,1784,1765,1000
1784849922.1415,1749,1780,1765,1000
1784849922.1435,1751,1773,1765,1000
1784849922.1455,1754,1776,1765,1000
1784849922.1475,1753,1778,1765,1000
1784849922.1495,1741,1779,1765,1000
1784849922.1515,1745,1776,1765,1000
1784849922.1535,1750,1791,1765,1000
1784849922.1556,1750,1779,1765,1000
1784849922.1577,1738,1778,1765,1000
1784849922.1598,1697,1779,1765,1000
1784849922.1619,1756,1786,1765,1000
1784849922.1640,1764,1779,1765,1000
1784849922.1660,1751,1777,1765,1000
1784849922.1681,1741,1782,1765,1000
1784849922.1701,1760,1785,1765,1000
1784849922.1720,1778,1779,1765,1000
1784849922.1740,1766,1777,1765,1000
1784849922.1760,1746,1774,1765,1000
1784849922.1780,1754,1787,1766,1000
1784849922.1799,1770,1775,1765,1000
1784849922.1819,1738,1783,1766,1000
1784849922.1839,1744,1777,1766,1000
1784849922.1858,1749,1780,1766,1000
1784849922.1879,1759,1783,1766,1000
1784849922.1899,1761,1780,1766,1000
1784849922.1920,1750,1785,1766,1000
1784849922.1940,1758,1776,1766,1000
1784849922.1960,1775,1781,1766,1000
1784849922.1980,1765,1776,1766,1000
1784849922.2032,1743,1775,1766,1000
1784849922.2037,1749,1779,1766,1000
1784849922.2041,1753,1778,1766,1000
1784849922.2045,1753,1777,1766,1000
1784849922.2066,1742,1779,1766,1000
1784849922.2087,1747,1778,1766,1000
1784849922.2109,1749,1783,1766,1000
1784849922.2128,1757,1780,1766,1000
1784849922.2148,1758,1779,1766,1000
1784849922.2168,1733,1775,1766,1000
1784849922.2187,1754,1776,1766,1000
1784849922.2206,1767,1781,1766,1000
1784849922.2225,1745,1776,1766,1000
1784849922.2246,1743,1769,1766,1000
1784849922.2266,1746,1777,1766,1000
1784849922.2286,1754,1774,1766,1000
1784849922.2308,1747,1778,1766,1000
1784849922.2329,1749,1775,1766,1000
1784849922.2350,1757,1772,1766,1000
1784849922.2370,1757,1777,1766,1000
1784849922.2390,1757,1776,1765,1000
1784849922.2410,1739,1779,1766,1000
1784849922.2430,1738,1774,1765,1000
1784849922.2450,1767,1778,1765,1000
1784849922.2470,1748,1779,1765,1000
1784849922.2490,1741,1777,1765,1000
1784849922.2510,1754,1779,1765,1000
1784849922.2531,1753,1772,1765,1000
1784849922.2550,1762,1776,1765,1000
1784849922.2569,1739,1779,1765,1000
1784849922.2588,1743,1764,1765,1000
1784849922.2610,1761,1773,1765,1000
1784849922.2632,1768,1775,1765,1000
1784849922.2654,1747,1780,1765,1000
1784849922.2675,1744,1778,1765,1000
1784849922.2696,1753,1775,1765,1000
1784849922.2717,1774,1778,1765,1000
1784849922.2735,1748,1779,1765,1000
1784849922.2753,1755,1776,1765,1000
1784849922.2770,1756,1776,1765,1000
1784849922.2791,1762,1783,1765,1000
1784849922.2813,1755,1774,1765,1000
1784849922.2834,1747,1780,1765,1000
1784849922.2854,1745,1781,1765,1000
1784849922.2873,1753,1767,1765,1000
1784849922.2893,1759,1775,1765,1000
1784849922.2913,1753,1803,1765,1000
1784849922.2933,1755,1775,1765,1000
1784849922.2953,1762,1774,1765,1000
1784849922.2974,1760,1776,1765,1000
1784849922.2995,1762,1774,1765,1000
1784849922.3016,1743,1777,1765,1000
1784849922.3037,1752,1776,1765,1000
1784849922.3057,1761,1780,1765,1000
1784849922.3078,1744,1774,1765,1000
1784849922.3122,1730,1775,1765,1000
1784849922.3166,1767,1778,1765,1000
1784849922.3210,1761,1779,1765,1000
1784849922.3244,1755,1781,1765,1000
1784849922.3278,1739,1777,1765,1000
1784849922.3311,1756,1788,1765,1000
1784849922.3314,1754,1776,1765,1000
1784849922.3316,1749,1770,1765,1000
1784849922.3318,1740,1783,1765,1000
1784849922.3320,1760,1783,1765,1000
1784849922.3322,1758,1780,1765,1000
1784849922.3324,1748,1778,1765,1000
1784849922.3326,1738,1774,1765,1000
1784849922.3345,1742,1780,1765,1000
1784849922.3364,1698,1774,1765,1000
1784849922.3383,1759,1778,1765,1000
1784849922.3403,1759,1780,1765,1000
1784849922.3423,1744,1777,1765,1000
1784849922.3443,1759,1776,1765,1000
1784849922.3463,1759,1777,1765,1000
1784849922.3482,1754,1775,1765,1000
1784849922.3502,1750,1776,1765,1000
1784849922.3523,1765,1777,1765,1000
1784849922.3543,1768,1775,1765,1000
1784849922.3564,1758,1777,1765,1000
1784849922.3584,1745,1783,1765,1000
1784849922.3605,1763,1772,1765,1000
1784849922.3625,1764,1777,1765,1000
1784849922.3648,1748,1777,1765,1000
1784849922.3671,1742,1783,1765,1000
1784849922.3694,1738,1775,1765,1000
1784849922.3712,1751,1782,1765,1000
1784849922.3731,1754,1790,1766,1000
1784849922.3750,1751,1781,1766,1000
1784849922.3769,1758,1784,1766,1000
1784849922.3788,1772,1778,1766,1000
1784849922.3807,1750,1778,1766,1000
1784849922.3828,1743,1776,1766,1000
1784849922.3848,1744,1781,1766,1000
1784849922.3869,1769,1785,1766,1000
1784849922.3890,1724,1788,1766,1000
1784849922.3910,1750,1785,1766,1000
1784849922.3931,1764,1777,1766,1000
1784849922.3951,1766,1781,1766,1000
1784849922.3970,1761,1775,1766,1000
1784849922.3990,1757,1785,1766,1000
1784849922.4010,1760,1776,1766,1000
1784849922.4029,1751,1780,1766,1000
1784849922.4049,1759,1777,1766,1000
1784849922.4072,1748,1784,1766,1000
1784849922.4094,1729,1781,1766,1000
1784849922.4117,1766,1780,1766,1000
1784849922.4136,1781,1793,1766,1000
1784849922.4155,1752,1782,1766,1000
1784849922.4174,1741,1777,1766,1000
1784849922.4193,1758,1768,1766,1000
1784849922.4213,1754,1780,1766,1000
1784849922.4232,1757,1784,1766,1000
1784849922.4290,1736,1783,1766,1000
1784849922.4348,1752,1776,1766,1000
1784849922.4407,1753,1772,1766,1000
1784849922.4420,1763,1786,1766,1000
1784849922.4433,1749,1779,1766,1000
1784849922.4447,1751,1780,1766,1000
1784849922.4460,1759,1775,1766,1000
1784849922.4474,1756,1777,1766,1000
1784849922.4487,1740,1780,1766,1000
1784849922.4496,1748,1775,1766,1000
1784849922.4504,1770,1778,1766,1000
1784849922.4512,1752,1778,1766,1000
1784849922.4520,1760,1778,1766,1000
1784849922.4528,1758,1779,1766,1000
1784849922.4536,1771,1782,1766,1000
1784849922.4590,1732,1779,1766,1000
1784849922.4592,1757,1776,1766,1000
1784849922.4594,1767,1773,1766,1000
1784849922.4596,1768,1776,1766,1000
1784849922.4618,1773,1778,1766,1000
1784849922.4639,1759,1775,1766,1000
1784849922.4660,1753,1787,1766,1000
1784849922.4682,1771,1774,1766,1000
1784849922.4703,1693,1790,1766,1000
1784849922.4724,1763,1783,1766,1000
1784849922.4743,1751,1779,1766,1000
1784849922.4762,1758,1771,1766,1000
1784849922.4781,1767,1780,1766,1000
1784849922.4802,1757,1777,1766,1000
1784849922.4822,1746,1778,1766,1000
1784849922.4842,1744,1780,1766,1000
1784849922.4863,1759,1773,1766,1000
1784849922.4883,1755,1769,1766,1000
1784849922.4904,1756,1775,1766,1000
1784849922.4923,1760,1777,1766,1000
1784849922.4942,1769,1785,1766,1000
1784849922.4961,1770,1775,1766,1000
1784849922.4982,1743,1780,1766,1000
1784849922.5004,1749,1773,1766,1000
1784849922.5025,1754,1776,1766,1000
1784849922.5045,1772,1779,1766,1000
1784849922.5066,1746,1774,1766,1000
1784849922.5086,1745,1787,1766,1000
1784849922.5106,1763,1776,1766,1000
1784849922.5126,1776,1777,1766,1000
1784849922.5146,1752,1778,1766,1000
1784849922.5174,1749,1775,1766,1000
1784849922.5201,1762,1774,1766,1000
1784849922.5229,1756,1780,1766,1000
1784849922.5243,1750,1778,1766,1000
1784849922.5258,1747,1780,1766,1000
1784849922.5273,1758,1775,1766,1000
1784849922.5291,1760,1767,1766,1000
1784849922.5308,1759,1774,1766,1000
1784849922.5326,1754,1777,1766,1000
1784849922.5347,1768,1774,1766,1000
1784849922.5369,1753,1776,1766,1000
1784849922.5390,1751,1776,1766,1000
1784849922.5410,1745,1774,1766,1000
1784849922.5430,1750,1782,1766,1000
1784849922.5451,1755,1774,1766,1000
1784849922.5471,1750,1775,1766,1000
1784849922.5491,1748,1778,1766,1000
1784849922.5511,1692,1805,1766,1000
1784849922.5532,1771,1781,1766,1000
1784849922.5552,1769,1776,1766,1000
1784849922.5573,1763,1783,1766,1000
1784849922.5593,1752,1778,1766,1000
1784849922.5614,1782,1774,1766,1000
1784849922.5634,1745,1779,1766,1000
1784849922.5654,1745,1783,1766,1000
1784849922.5673,1733,1776,1766,1000
1784849922.5693,1768,1781,1766,1000
1784849922.5720,1798,1787,1766,1000
1784849922.5747,1752,1799,1766,1000
1784849922.5774,1746,1789,1766,1000
1784849922.5887,1759,1795,1767,1000
1784849922.6001,1764,1791,1767,1000
1784849922.6114,1754,1803,1767,1000
1784849922.6115,1743,1796,1767,1000
1784849922.6115,1747,1794,1767,1000
1784849922.6116,1763,1797,1767,1000
1784849922.6117,1762,1794,1768,1000
1784849922.6118,1749,1788,1768,1000
1784849922.6119,1753,1792,1768,1000
1784849922.6119,1767,1785,1768,1000
1784849922.6120,1767,1793,1768,1000
1784849922.6121,1746,1786,1768,1000
1784849922.6122,1744,1797,1768,1000
1784849922.6122,1757,1787,1768,1000
1784849922.6123,1745,1789,1768,1000
1784849922.6124,1750,1792,1768,1000
1784849922.6125,1757,1788,1769,1000
1784849922.6125,1770,1788,1769,1000
1784849922.6126,1773,1787,1769,1000
1784849922.6148,1760,1789,1769,1000
1784849922.6169,1747,1789,1769,1000
1784849922.6190,1752,1784,1769,1000
1784849922.6209,1763,1793,1769,1000
1784849922.6228,1761,1790,1769,1000
1784849922.6247,1749,1782,1769,1000
1784849922.6268,1743,1793,1769,1000
1784849922.6289,1757,1794,1769,1000
1784849922.6310,1766,1787,1769,1000
1784849922.6331,1744,1794,1770,1000
1784849922.6352,1760,1795,1770,1000
1784849922.6373,1755,1794,1770,1000
1784849922.6392,1761,1792,1770,1000
1784849922.6412,1750,1772,1770,1000
1784849922.6431,1744,1796,1770,1000
1784849922.6453,1757,1786,1770,1000
1784849922.6475,1753,1784,1770,1000
1784849922.6498,1740,1791,1770,1000
1784849922.6516,1757,1798,1770,1000
1784849922.6535,1773,1785,1770,1000
1784849922.6553,1762,1793,1770,1000
1784849922.6573,1751,1784,1770,1000
1784849922.6594,1745,1786,1770,1000
1784849922.6614,1759,1789,1770,1000
1784849922.6635,1762,1790,1771,1000
1784849922.6655,1744,1782,1771,1000
1784849922.6676,1748,1788,1771,1000
1784849922.6695,1756,1788,1771,1000
1784849922.6715,1767,1790,1771,1000
1784849922.6734,1774,1792,1771,1000
1784849922.6759,1745,1786,1771,1000
1784849922.6785,1746,1789,1771,1000
1784849922.6811,1757,1789,1771,1000
1784849922.6826,1748,1787,1771,1000
1784849922.6842,1739,1795,1771,1000
1784849922.6858,1748,1781,1771,1000
1784849922.6880,1759,1785,1771,1000
1784849922.6901,1782,1792,1771,1000
1784849922.6923,1750,1790,1771,1000
1784849922.6941,1744,1784,1771,1000
1784849922.6960,1761,1786,1771,1000
1784849922.6978,1771,1784,1771,1000
1784849922.6999,1759,1783,1771,1000
1784849922.7020,1734,1784,1771,1000
1784849922.7041,1765,1788,1771,1000
1784849922.7060,1759,1787,1771,1000
1784849922.7080,1745,1793,1771,1000
1784849922.7099,1728,1783,1771,1000
1784849922.7152,1754,1797,1772,1000
1784849922.7156,1775,1786,1772,1000
1784849922.7160,1756,1791,1772,1000
1784849922.7163,1745,1792,1772,1000
1784849922.7184,1763,1793,1772,1000
1784849922.7205,1766,1787,1772,1000
1784849922.7225,1750,1787,1772,1000
1784849922.7245,1752,1785,1772,1000
1784849922.7265,1774,1783,1772,1000
1784849922.7284,1749,1782,1772,1000
1784849922.7303,1711,1781,1772,1000
1784849922.7322,1746,1765,1772,1000
1784849922.7341,1752,1785,1772,1000
1784849922.7362,1764,1784,1772,1000
1784849922.7384,1759,1785,1772,1000
1784849922.7405,1746,1784,1772,1000
1784849922.7425,1748,1786,1772,1000
1784849922.7445,1760,1780,1772,1000
1784849922.7465,1763,1786,1772,1000
1784849922.7485,1756,1786,1772,1000
1784849922.7505,1743,1796,1772,1000
1784849922.7526,1762,1782,1772,1000
1784849922.7590,1772,1780,1772,1000
1784849922.7654,1755,1785,1772,1000
1784849922.7718,1746,1790,1772,1000
1784849922.7728,1753,1785,1772,1000
1784849922.7738,1770,1787,1772,1000
1784849922.7748,1747,1781,1772,1000
1784849922.7758,1736,1781,1772,1000
1784849922.7768,1739,1778,1772,1000
1784849922.7778,1767,1786,1772,1000
1784849922.7789,1750,1783,1772,1000
1784849922.7800,1754,1781,1772,1000
1784849922.7810,1751,1780,1772,1000
1784849922.7816,1767,1778,1772,1000
1784849922.7822,1757,1783,1772,1000
1784849922.7828,1745,1782,1772,1000
1784849922.7848,1749,1778,1772,1000
1784849922.7869,1758,1783,1772,1000
1784849922.7890,1760,1786,1772,1000
1784849922.7911,1598,1800,1772,1000
1784849922.7933,1781,1776,1772,1000
1784849922.7955,1783,1781,1772,1000
1784849922.7974,1771,1785,1772,1000
1784849922.7993,1771,1788,1772,1000
1784849922.8011,1751,1779,1772,1000
1784849922.8032,1756,1779,1772,1000
1784849922.8052,1763,1796,1772,1000
1784849922.8072,1758,1783,1772,1000
1784849922.8094,1754,1780,1772,1000
1784849922.8115,1774,1784,1772,1000
1784849922.8137,1775,1787,1772,1000
1784849922.8156,1763,1782,1772,1000
1784849922.8175,1748,1781,1772,1000
1784849922.8194,1752,1783,1772,1000
1784849922.8216,1756,1786,1772,1000
1784849922.8239,1747,1779,1772,1000
1784849922.8261,1741,1782,1772,1000
1784849922.8281,1749,1787,1772,1000
1784849922.8301,1774,1784,1772,1000
1784849922.8321,1777,1795,1772,1000
1784849922.8339,1754,1783,1772,1000
1784849922.8358,1741,1783,1772,1000
1784849922.8377,1761,1786,1772,1000
1784849922.8430,1752,1772,1772,1000
1784849922.8433,1748,1780,1772,1000
1784849922.8436,1772,1780,1772,1000
1784849922.8438,1753,1787,1772,1000
1784849922.8460,1756,1784,1772,1000
1784849922.8481,1744,1779,1772,1000
1784849922.8503,1747,1786,1772,1000
1784849922.8523,1764,1778,1772,1000
1784849922.8543,1759,1781,1772,1000
1784849922.8563,1745,1786,1772,1000
1784849922.8584,1750,1777,1771,1000
1784849922.8604,1756,1785,1771,1000
1784849922.8624,1760,1772,1771,1000
1784849922.8680,1753,1780,1771,1000
1784849922.8735,1745,1776,1771,1000
1784849922.8791,1731,1780,1771,1000
1784849922.8816,1750,1781,1771,1000
1784849922.8840,1669,1784,1771,1000
1784849922.8865,1759,1781,1771,1000
1784849922.8867,1757,1780,1771,1000
1784849922.8869,1764,1783,1771,1000
1784849922.8871,1765,1778,1771,1000
1784849922.8873,1745,1785,1771,1000
1784849922.8874,1744,1782,1771,1000
1784849922.8876,1760,1780,1771,1000
1784849922.8894,1766,1784,1771,1000
1784849922.8911,1726,1778,1771,1000
1784849922.8928,1740,1784,1771,1000
1784849922.8948,1759,1775,1771,1000
1784849922.8968,1774,1775,1771,1000
1784849922.8987,1743,1778,1771,1000
1784849922.9008,1745,1779,1771,1000
1784849922.9028,1761,1781,1771,1000
1784849922.9049,1762,1784,1771,1000
1784849922.9069,1745,1785,1771,1000
1784849922.9089,1751,1792,1771,1000
1784849922.9109,1766,1776,1771,1000
1784849922.9129,1766,1773,1771,1000
1784849922.9148,1754,1768,1771,1000
1784849922.9168,1750,1782,1771,1000
1784849922.9189,1764,1798,1771,1000
1784849922.9210,1769,1781,1771,1000
1784849922.9231,1750,1782,1771,1000
1784849922.9251,1752,1779,1771,1000
1784849922.9272,1753,1780,1771,1000
1784849922.9292,1771,1780,1771,1000
1784849922.9312,1765,1782,1771,1000
1784849922.9332,1755,1787,1771,1000
1784849922.9352,1737,1773,1771,1000
1784849922.9372,1777,1774,1770,1000
1784849922.9393,1766,1779,1770,1000
1784849922.9414,1746,1779,1770,1000
1784849922.9434,1746,1771,1770,1000
1784849922.9454,1753,1783,1770,1000
1784849922.9474,1762,1771,1770,1000
1784849922.9496,1753,1778,1770,1000
1784849922.9517,1748,1767,1770,1000
1784849922.9538,1752,1776,1770,1000
1784849922.9574,1768,1777,1770,1000
1784849922.9610,1752,1779,1770,1000
1784849922.9646,1751,1775,1770,1000
1784849922.9650,1753,1776,1770,1000
1784849922.9654,1767,1773,1770,1000
1784849922.9657,1744,1774,1770,1000
1784849922.9710,1744,1775,1769,1000
1784849922.9712,1740,1775,1769,1000
1784849922.9715,1771,1772,1769,1000
1784849922.9717,1757,1773,1769,1000
1784849922.9738,1747,1776,1769,1000
1784849922.9760,1758,1779,1769,1000
1784849922.9781,1774,1777,1769,1000
1784849922.9801,1747,1773,1769,1000
1784849922.9822,1743,1777,1769,1000
1784849922.9842,1746,1783,1769,1000
1784849922.9863,1754,1780,1769,1000
1784849922.9883,1761,1773,1769,1000
1784849922.9903,1767,1779,1769,1000
1784849922.9924,1747,1778,1769,1000
1784849922.9945,1779,1779,1769,1000
1784849922.9966,1762,1779,1769,1000
1784849922.9985,1744,1776,1769,1000
1784849923.0004,1747,1779,1769,1000
1784849923.0023,1763,1776,1769,1000
1784849923.0044,1771,1774,1769,1000
1784849923.0065,1727,1772,1769,1000
1784849923.0086,1748,1776,1768,1000
1784849923.0107,1761,1773,1768,1000
1784849923.0128,1773,1777,1768,1000
1784849923.0150,1763,1779,1768,1000
1784849923.0171,1744,1777,1768,1000
1784849923.0193,1745,1771,1768,1000
1784849923.0214,1765,1777,1768,1000
1784849923.0233,1758,1777,1768,1000
1784849923.0252,1729,1772,1768,1000
1784849923.0270,1745,1773,1768,1000
1784849923.0360,1759,1776,1768,1000
1784849923.0450,1767,1771,1768,1000
1784849923.0540,1749,1777,1768,1000
1784849923.0544,1753,1774,1768,1000
1784849923.0548,1773,1766,1768,1000
1784849923.0553,1759,1782,1768,1000
1784849923.0557,1745,1778,1768,1000
1784849923.0561,1746,1776,1768,1000
1784849923.0565,1759,1780,1768,1000
1784849923.0569,1747,1773,1768,1000
1784849923.0574,1739,1780,1768,1000
1784849923.0578,1752,1775,1767,1000
1784849923.0581,1767,1785,1768,1000
1784849923.0584,1765,1778,1768,1000
1784849923.0588,1753,1779,1768,1000
1784849923.0604,1751,1780,1768,1000
1784849923.0620,1752,1768,1767,1000
1784849923.0636,1760,1776,1767,1000
1784849923.0657,1752,1779,1767,1000
1784849923.0679,1744,1778,1767,1000
1784849923.0700,1745,1773,1767,1000
1784849923.0720,1774,1774,1767,1000
1784849923.0740,1762,1776,1767,1000
1784849923.0759,1747,1785,1767,1000
1784849923.0781,1748,1782,1767,1000
1784849923.0803,1757,1779,1767,1000
1784849923.0824,1761,1771,1767,1000
1784849923.0844,1744,1774,1767,1000
1784849923.0863,1742,1777,1767,1000
1784849923.0882,1764,1772,1767,1000
1784849923.0906,1771,1779,1767,1000
1784849923.0929,1744,1797,1767,1000
1784849923.0953,1749,1778,1767,1000
1784849923.0992,1767,1782,1767,1000
1784849923.0996,1763,1780,1767,1000
